'sample interval','ECG1','ECG2'
'0.004 sec','mV','mV'
180000,0.185,-0.510
180001,0.315,-0.495
180002,0.405,-0.510
180003,0.465,-0.480
180004,0.515,-0.495
180005,0.540,-0.480
180006,0.570,-0.480
180007,0.580,-0.450
180008,0.605,-0.460
180009,0.610,-0.445
180010,0.620,-0.425
180011,0.660,-0.430
180012,0.640,-0.415
180013,0.660,-0.405
180014,0.680,-0.405
180015,0.700,-0.385
180016,0.725,-0.390
180017,0.715,-0.375
180018,0.745,-0.375
180019,0.790,-0.390
180020,0.800,-0.360
180021,0.810,-0.370
180022,0.815,-0.355
180023,0.850,-0.385
180024,0.850,-0.400
180025,0.885,-0.390
180026,0.920,-0.420
180027,0.960,-0.420
180028,0.980,-0.435
180029,1.020,-0.435
180030,1.045,-0.450
180031,1.060,-0.475
180032,1.100,-0.495
180033,1.150,-0.485
180034,1.155,-0.510
180035,1.170,-0.535
180036,1.205,-0.545
180037,1.225,-0.535
180038,1.210,-0.525
180039,1.205,-0.530
180040,1.210,-0.515
180041,1.195,-0.480
180042,1.170,-0.465
180043,1.135,-0.440
180044,1.095,-0.390
180045,1.075,-0.355
180046,1.030,-0.325
180047,0.970,-0.295
180048,0.925,-0.265
180049,0.865,-0.240
180050,0.810,-0.215
180051,0.765,-0.195
180052,0.720,-0.180
180053,0.655,-0.180
180054,0.585,-0.160
180055,0.525,-0.180
180056,0.470,-0.190
180057,0.435,-0.190
180058,0.380,-0.220
180059,0.355,-0.245
180060,0.285,-0.240
180061,0.245,-0.230
180062,0.225,-0.235
180063,0.210,-0.255
180064,0.185,-0.275
180065,0.170,-0.260
180066,0.155,-0.270
180067,0.125,-0.265
180068,0.120,-0.285
180069,0.135,-0.290
180070,0.125,-0.295
180071,0.105,-0.300
180072,0.135,-0.305
180073,0.100,-0.300
180074,0.115,-0.295
180075,0.115,-0.315
180076,0.095,-0.330
180077,0.105,-0.320
180078,0.085,-0.305
180079,0.080,-0.335
180080,0.095,-0.330
180081,0.090,-0.340
180082,0.100,-0.345
180083,0.115,-0.360
180084,0.095,-0.355
180085,0.110,-0.360
180086,0.115,-0.340
180087,0.130,-0.370
180088,0.130,-0.360
180089,0.110,-0.380
180090,0.150,-0.385
180091,0.135,-0.375
180092,0.155,-0.385
180093,0.150,-0.390
180094,0.135,-0.395
180095,0.165,-0.395
180096,0.125,-0.410
180097,0.115,-0.425
180098,0.115,-0.410
180099,0.135,-0.410
180100,0.140,-0.405
180101,0.120,-0.400
180102,0.110,-0.405
180103,0.120,-0.425
180104,0.115,-0.420
180105,0.115,-0.400
180106,0.130,-0.400
180107,0.120,-0.385
180108,0.130,-0.400
180109,0.105,-0.385
180110,0.130,-0.400
180111,0.115,-0.370
180112,0.105,-0.395
180113,0.110,-0.385
180114,0.100,-0.365
180115,0.095,-0.355
180116,0.095,-0.370
180117,0.095,-0.360
180118,0.095,-0.370
180119,0.085,-0.400
180120,0.080,-0.370
180121,0.070,-0.360
180122,0.090,-0.365
180123,0.070,-0.370
180124,0.085,-0.380
180125,0.080,-0.365
180126,0.085,-0.355
180127,0.095,-0.350
180128,0.075,-0.365
180129,0.075,-0.365
180130,0.110,-0.345
180131,0.060,-0.345
180132,0.070,-0.355
180133,0.080,-0.360
180134,0.090,-0.345
180135,0.075,-0.355
180136,0.070,-0.350
180137,0.050,-0.345
180138,0.060,-0.325
180139,0.050,-0.355
180140,0.050,-0.350
180141,0.055,-0.355
180142,0.045,-0.340
180143,0.055,-0.365
180144,0.060,-0.365
180145,0.040,-0.360
180146,0.075,-0.340
180147,0.055,-0.340
180148,0.055,-0.350
180149,0.050,-0.350
180150,0.045,-0.335
180151,0.075,-0.350
180152,0.045,-0.345
180153,0.030,-0.330
180154,0.055,-0.335
180155,0.060,-0.360
180156,0.050,-0.360
180157,0.055,-0.350
180158,0.035,-0.345
180159,0.070,-0.345
180160,0.030,-0.340
180161,0.065,-0.290
180162,0.060,-0.245
180163,0.060,-0.240
180164,0.070,-0.245
180165,0.105,-0.215
180166,0.135,-0.170
180167,0.150,-0.165
180168,0.175,-0.160
180169,0.210,-0.135
180170,0.240,-0.120
180171,0.230,-0.185
180172,0.220,-0.220
180173,0.205,-0.235
180174,0.175,-0.230
180175,0.150,-0.265
180176,0.100,-0.290
180177,0.070,-0.300
180178,0.060,-0.320
180179,0.040,-0.315
180180,0.005,-0.340
180181,-0.015,-0.380
180182,-0.005,-0.420
180183,0.000,-0.400
180184,0.040,-0.410
180185,0.020,-0.425
180186,0.015,-0.400
180187,0.005,-0.420
180188,0.000,-0.415
180189,0.000,-0.410
180190,0.000,-0.400
180191,0.020,-0.405
180192,-0.035,-0.415
180193,-0.005,-0.415
180194,0.000,-0.405
180195,0.000,-0.400
180196,0.010,-0.390
180197,0.010,-0.425
180198,0.005,-0.425
180199,0.000,-0.400
180200,-0.005,-0.400
180201,0.000,-0.395
180202,0.030,-0.400
180203,0.005,-0.410
180204,0.015,-0.350
180205,0.005,-0.335
180206,0.010,-0.200
180207,0.020,-0.030
180208,0.060,0.215
180209,0.155,0.595
180210,0.190,0.975
180211,0.015,1.235
180212,-0.305,1.395
180213,-0.785,1.525
180214,-1.465,1.710
180215,-2.155,1.905
180216,-2.620,1.910
180217,-2.840,1.795
180218,-2.845,1.635
180219,-2.715,1.420
180220,-2.535,1.210
180221,-2.375,0.990
180222,-2.300,0.850
180223,-2.160,0.770
180224,-2.005,0.820
180225,-1.885,1.040
180226,-1.735,1.305
180227,-1.615,1.410
180228,-1.475,1.160
180229,-1.300,0.630
180230,-1.190,0.075
180231,-1.055,-0.320
180232,-0.920,-0.565
180233,-0.745,-0.670
180234,-0.580,-0.685
180235,-0.440,-0.685
180236,-0.240,-0.635
180237,-0.055,-0.590
180238,0.105,-0.575
180239,0.235,-0.555
180240,0.350,-0.540
180241,0.440,-0.555
180242,0.470,-0.545
180243,0.495,-0.520
180244,0.510,-0.540
180245,0.525,-0.500
180246,0.545,-0.495
180247,0.555,-0.485
180248,0.575,-0.480
180249,0.580,-0.485
180250,0.585,-0.470
180251,0.590,-0.440
180252,0.590,-0.420
180253,0.605,-0.405
180254,0.605,-0.395
180255,0.635,-0.400
180256,0.645,-0.390
180257,0.645,-0.390
180258,0.645,-0.385
180259,0.680,-0.365
180260,0.700,-0.405
180261,0.705,-0.405
180262,0.745,-0.400
180263,0.755,-0.425
180264,0.790,-0.395
180265,0.820,-0.425
180266,0.810,-0.440
180267,0.865,-0.465
180268,0.875,-0.480
180269,0.895,-0.500
180270,0.940,-0.500
180271,0.980,-0.525
180272,1.000,-0.525
180273,1.000,-0.530
180274,1.000,-0.540
180275,1.030,-0.550
180276,1.055,-0.530
180277,1.065,-0.525
180278,1.075,-0.535
180279,1.075,-0.500
180280,1.040,-0.490
180281,1.025,-0.465
180282,1.020,-0.435
180283,0.995,-0.385
180284,0.935,-0.340
180285,0.940,-0.330
180286,0.875,-0.315
180287,0.850,-0.265
180288,0.790,-0.250
180289,0.735,-0.225
180290,0.680,-0.215
180291,0.625,-0.215
180292,0.590,-0.195
180293,0.545,-0.200
180294,0.475,-0.225
180295,0.445,-0.240
180296,0.410,-0.250
180297,0.350,-0.250
180298,0.315,-0.240
180299,0.275,-0.280
180300,0.245,-0.280
180301,0.190,-0.270
180302,0.205,-0.280
180303,0.185,-0.300
180304,0.170,-0.305
180305,0.150,-0.290
180306,0.140,-0.315
180307,0.135,-0.315
180308,0.125,-0.310
180309,0.105,-0.305
180310,0.110,-0.315
180311,0.110,-0.350
180312,0.105,-0.350
180313,0.100,-0.340
180314,0.115,-0.365
180315,0.095,-0.385
180316,0.120,-0.375
180317,0.115,-0.390
180318,0.115,-0.370
180319,0.120,-0.385
180320,0.130,-0.370
180321,0.110,-0.385
180322,0.105,-0.400
180323,0.105,-0.395
180324,0.110,-0.415
180325,0.125,-0.420
180326,0.135,-0.410
180327,0.125,-0.410
180328,0.150,-0.420
180329,0.115,-0.430
180330,0.105,-0.410
180331,0.110,-0.425
180332,0.120,-0.440
180333,0.120,-0.420
180334,0.100,-0.445
180335,0.105,-0.445
180336,0.100,-0.445
180337,0.115,-0.430
180338,0.110,-0.415
180339,0.105,-0.400
180340,0.105,-0.435
180341,0.105,-0.405
180342,0.095,-0.410
180343,0.085,-0.410
180344,0.085,-0.405
180345,0.095,-0.425
180346,0.065,-0.425
180347,0.075,-0.415
180348,0.095,-0.425
180349,0.070,-0.400
180350,0.050,-0.405
180351,0.060,-0.425
180352,0.060,-0.385
180353,0.045,-0.425
180354,0.045,-0.415
180355,0.045,-0.400
180356,0.050,-0.390
180357,0.050,-0.410
180358,0.060,-0.400
180359,0.055,-0.395
180360,0.035,-0.410
180361,0.060,-0.400
180362,0.055,-0.380
180363,0.055,-0.375
180364,0.055,-0.400
180365,0.050,-0.400
180366,0.035,-0.390
180367,0.040,-0.385
180368,0.050,-0.410
180369,0.060,-0.395
180370,0.065,-0.370
180371,0.030,-0.370
180372,0.035,-0.375
180373,0.060,-0.395
180374,0.050,-0.380
180375,0.045,-0.370
180376,0.060,-0.360
180377,0.060,-0.400
180378,0.050,-0.385
180379,0.060,-0.370
180380,0.045,-0.390
180381,0.055,-0.385
180382,0.055,-0.370
180383,0.050,-0.375
180384,0.030,-0.380
180385,0.040,-0.370
180386,0.055,-0.365
180387,0.035,-0.375
180388,0.055,-0.365
180389,0.050,-0.340
180390,0.030,-0.300
180391,0.040,-0.255
180392,0.055,-0.280
180393,0.085,-0.250
180394,0.105,-0.210
180395,0.140,-0.175
180396,0.165,-0.190
180397,0.190,-0.180
180398,0.195,-0.185
180399,0.190,-0.195
180400,0.190,-0.235
180401,0.190,-0.290
180402,0.145,-0.265
180403,0.120,-0.260
180404,0.100,-0.310
180405,0.085,-0.335
180406,0.075,-0.340
180407,0.045,-0.355
180408,0.020,-0.360
180409,0.000,-0.395
180410,-0.010,-0.450
180411,0.020,-0.420
180412,0.005,-0.430
180413,-0.005,-0.425
180414,0.010,-0.430
180415,-0.015,-0.445
180416,0.000,-0.435
180417,0.010,-0.450
180418,0.000,-0.445
180419,0.000,-0.460
180420,-0.010,-0.440
180421,-0.010,-0.455
180422,-0.025,-0.455
180423,0.010,-0.420
180424,0.015,-0.420
180425,-0.005,-0.440
180426,0.000,-0.465
180427,0.000,-0.430
180428,0.025,-0.430
180429,0.010,-0.445
180430,-0.005,-0.450
180431,0.000,-0.425
180432,0.000,-0.395
180433,0.010,-0.375
180434,0.015,-0.300
180435,0.000,-0.150
180436,0.040,0.055
180437,0.105,0.370
180438,0.205,0.785
180439,0.135,1.130
180440,-0.130,1.330
180441,-0.550,1.520
180442,-1.245,1.720
180443,-1.945,1.900
180444,-2.495,1.920
180445,-2.740,1.835
180446,-2.790,1.695
180447,-2.670,1.535
180448,-2.515,1.335
180449,-2.335,1.170
180450,-2.205,1.035
180451,-2.120,0.885
180452,-1.920,0.905
180453,-1.800,1.045
180454,-1.685,1.320
180455,-1.565,1.575
180456,-1.460,1.515
180457,-1.315,1.100
180458,-1.195,0.490
180459,-1.080,-0.050
180460,-0.940,-0.415
180461,-0.815,-0.590
180462,-0.660,-0.640
180463,-0.475,-0.680
180464,-0.290,-0.675
180465,-0.100,-0.655
180466,0.055,-0.620
180467,0.185,-0.610
180468,0.320,-0.595
180469,0.410,-0.600
180470,0.455,-0.595
180471,0.500,-0.595
180472,0.530,-0.550
180473,0.530,-0.545
180474,0.540,-0.535
180475,0.570,-0.550
180476,0.610,-0.530
180477,0.590,-0.520
180478,0.625,-0.520
180479,0.620,-0.530
180480,0.635,-0.480
180481,0.635,-0.480
180482,0.665,-0.490
180483,0.685,-0.495
180484,0.685,-0.495
180485,0.690,-0.470
180486,0.710,-0.480
180487,0.715,-0.480
180488,0.735,-0.475
180489,0.745,-0.480
180490,0.760,-0.500
180491,0.795,-0.515
180492,0.815,-0.525
180493,0.855,-0.530
180494,0.865,-0.560
180495,0.880,-0.590
180496,0.900,-0.580
180497,0.950,-0.610
180498,0.945,-0.635
180499,0.990,-0.650
180500,1.000,-0.660
180501,1.025,-0.670
180502,1.040,-0.690
180503,1.040,-0.705
180504,1.055,-0.685
180505,1.060,-0.690
180506,1.090,-0.670
180507,1.060,-0.660
180508,1.055,-0.625
180509,1.035,-0.560
180510,1.030,-0.555
180511,0.995,-0.510
180512,0.940,-0.465
180513,0.910,-0.415
180514,0.875,-0.390
180515,0.830,-0.360
180516,0.780,-0.325
180517,0.725,-0.295
180518,0.670,-0.315
180519,0.615,-0.275
180520,0.565,-0.270
180521,0.535,-0.280
180522,0.455,-0.285
180523,0.420,-0.300
180524,0.380,-0.290
180525,0.355,-0.305
180526,0.315,-0.305
180527,0.275,-0.310
180528,0.260,-0.330
180529,0.245,-0.345
180530,0.215,-0.350
180531,0.205,-0.335
180532,0.200,-0.340
180533,0.195,-0.360
180534,0.210,-0.365
180535,0.195,-0.345
180536,0.165,-0.350
180537,0.180,-0.355
180538,0.180,-0.355
180539,0.175,-0.380
180540,0.180,-0.375
180541,0.175,-0.385
180542,0.170,-0.390
180543,0.175,-0.395
180544,0.170,-0.395
180545,0.180,-0.395
180546,0.170,-0.440
180547,0.180,-0.440
180548,0.190,-0.415
180549,0.190,-0.400
180550,0.180,-0.430
180551,0.200,-0.420
180552,0.195,-0.420
180553,0.210,-0.430
180554,0.195,-0.445
180555,0.205,-0.445
180556,0.190,-0.425
180557,0.180,-0.440
180558,0.180,-0.445
180559,0.190,-0.450
180560,0.180,-0.425
180561,0.190,-0.430
180562,0.205,-0.445
180563,0.165,-0.445
180564,0.195,-0.440
180565,0.180,-0.425
180566,0.160,-0.455
180567,0.145,-0.445
180568,0.160,-0.415
180569,0.145,-0.435
180570,0.165,-0.435
180571,0.170,-0.425
180572,0.145,-0.415
180573,0.155,-0.430
180574,0.140,-0.435
180575,0.115,-0.415
180576,0.135,-0.410
180577,0.130,-0.415
180578,0.145,-0.420
180579,0.135,-0.400
180580,0.145,-0.395
180581,0.155,-0.410
180582,0.140,-0.410
180583,0.125,-0.410
180584,0.130,-0.395
180585,0.135,-0.400
180586,0.135,-0.390
180587,0.140,-0.410
180588,0.125,-0.395
180589,0.155,-0.395
180590,0.150,-0.400
180591,0.125,-0.380
180592,0.130,-0.375
180593,0.120,-0.375
180594,0.115,-0.390
180595,0.135,-0.395
180596,0.130,-0.385
180597,0.120,-0.380
180598,0.090,-0.395
180599,0.095,-0.355
180600,0.110,-0.365
180601,0.125,-0.335
180602,0.130,-0.295
180603,0.110,-0.255
180604,0.135,-0.240
180605,0.175,-0.225
180606,0.200,-0.190
180607,0.230,-0.185
180608,0.265,-0.150
180609,0.285,-0.155
180610,0.310,-0.175
180611,0.300,-0.190
180612,0.280,-0.230
180613,0.260,-0.255
180614,0.205,-0.250
180615,0.180,-0.275
180616,0.155,-0.305
180617,0.170,-0.295
180618,0.130,-0.295
180619,0.100,-0.335
180620,0.055,-0.390
180621,0.075,-0.425
180622,0.070,-0.425
180623,0.075,-0.420
180624,0.055,-0.435
180625,0.070,-0.455
180626,0.060,-0.445
180627,0.045,-0.430
180628,0.050,-0.435
180629,0.070,-0.430
180630,0.055,-0.440
180631,0.035,-0.430
180632,0.055,-0.440
180633,0.070,-0.430
180634,0.060,-0.430
180635,0.055,-0.440
180636,0.060,-0.435
180637,0.050,-0.435
180638,0.050,-0.440
180639,0.065,-0.435
180640,0.075,-0.435
180641,0.065,-0.435
180642,0.055,-0.410
180643,0.035,-0.380
180644,0.060,-0.325
180645,0.055,-0.170
180646,0.070,0.035
180647,0.150,0.325
180648,0.220,0.680
180649,0.140,0.930
180650,-0.185,1.125
180651,-0.690,1.365
180652,-1.460,1.630
180653,-2.160,1.790
180654,-2.625,1.775
180655,-2.800,1.680
180656,-2.765,1.570
180657,-2.650,1.355
180658,-2.510,1.165
180659,-2.370,0.995
180660,-2.270,0.825
180661,-2.095,0.795
180662,-1.945,0.910
180663,-1.845,1.200
180664,-1.725,1.450
180665,-1.585,1.350
180666,-1.410,0.890
180667,-1.280,0.215
180668,-1.170,-0.335
180669,-1.035,-0.605
180670,-0.855,-0.695
180671,-0.685,-0.685
180672,-0.490,-0.670
180673,-0.300,-0.660
180674,-0.080,-0.625
180675,0.100,-0.595
180676,0.295,-0.580
180677,0.395,-0.575
180678,0.465,-0.575
180679,0.510,-0.560
180680,0.560,-0.555
180681,0.595,-0.550
180682,0.615,-0.535
180683,0.610,-0.525
180684,0.625,-0.510
180685,0.650,-0.510
180686,0.680,-0.515
180687,0.670,-0.510
180688,0.670,-0.495
180689,0.695,-0.495
180690,0.715,-0.490
180691,0.710,-0.495
180692,0.730,-0.490
180693,0.750,-0.475
180694,0.755,-0.495
180695,0.790,-0.495
180696,0.795,-0.505
180697,0.835,-0.500
180698,0.830,-0.510
180699,0.860,-0.515
180700,0.880,-0.540
180701,0.910,-0.535
180702,0.915,-0.555
180703,0.950,-0.585
180704,0.955,-0.580
180705,1.000,-0.585
180706,1.020,-0.605
180707,1.065,-0.630
180708,1.090,-0.650
180709,1.105,-0.665
180710,1.125,-0.665
180711,1.130,-0.685
180712,1.145,-0.670
180713,1.135,-0.655
180714,1.140,-0.665
180715,1.115,-0.645
180716,1.115,-0.630
180717,1.105,-0.590
180718,1.065,-0.580
180719,1.030,-0.535
180720,0.990,-0.505
180721,0.970,-0.465
180722,0.910,-0.420
180723,0.875,-0.405
180724,0.835,-0.370
180725,0.790,-0.320
180726,0.725,-0.320
180727,0.670,-0.320
180728,0.630,-0.320
180729,0.560,-0.305
180730,0.515,-0.315
180731,0.450,-0.325
180732,0.410,-0.320
180733,0.365,-0.345
180734,0.325,-0.350
180735,0.285,-0.340
180736,0.260,-0.365
180737,0.235,-0.375
180738,0.230,-0.380
180739,0.200,-0.390
180740,0.195,-0.400
180741,0.190,-0.400
180742,0.175,-0.395
180743,0.175,-0.395
180744,0.155,-0.400
180745,0.170,-0.400
180746,0.160,-0.430
180747,0.160,-0.430
180748,0.175,-0.440
180749,0.170,-0.425
180750,0.135,-0.445
180751,0.140,-0.445
180752,0.155,-0.440
180753,0.175,-0.450
180754,0.165,-0.450
180755,0.155,-0.460
180756,0.165,-0.450
180757,0.185,-0.445
180758,0.165,-0.450
180759,0.160,-0.475
180760,0.165,-0.470
180761,0.150,-0.450
180762,0.155,-0.475
180763,0.180,-0.480
180764,0.180,-0.460
180765,0.200,-0.440
180766,0.190,-0.470
180767,0.175,-0.465
180768,0.200,-0.440
180769,0.185,-0.435
180770,0.155,-0.475
180771,0.175,-0.470
180772,0.145,-0.435
180773,0.160,-0.440
180774,0.170,-0.455
180775,0.165,-0.460
180776,0.165,-0.430
180777,0.165,-0.430
180778,0.150,-0.450
180779,0.145,-0.440
180780,0.170,-0.420
180781,0.160,-0.430
180782,0.160,-0.415
180783,0.135,-0.430
180784,0.160,-0.430
180785,0.150,-0.405
180786,0.145,-0.420
180787,0.150,-0.415
180788,0.140,-0.410
180789,0.145,-0.405
180790,0.130,-0.410
180791,0.130,-0.415
180792,0.130,-0.395
180793,0.160,-0.415
180794,0.145,-0.405
180795,0.140,-0.405
180796,0.140,-0.415
180797,0.120,-0.400
180798,0.140,-0.405
180799,0.115,-0.420
180800,0.115,-0.410
180801,0.110,-0.405
180802,0.135,-0.400
180803,0.130,-0.400
180804,0.120,-0.380
180805,0.120,-0.360
180806,0.125,-0.330
180807,0.125,-0.295
180808,0.140,-0.265
180809,0.150,-0.255
180810,0.200,-0.220
180811,0.215,-0.205
180812,0.260,-0.195
180813,0.265,-0.175
180814,0.275,-0.160
180815,0.300,-0.170
180816,0.280,-0.215
180817,0.275,-0.260
180818,0.225,-0.275
180819,0.205,-0.260
180820,0.165,-0.280
180821,0.135,-0.300
180822,0.155,-0.335
180823,0.120,-0.340
180824,0.065,-0.345
180825,0.055,-0.405
180826,0.075,-0.445
180827,0.075,-0.460
180828,0.075,-0.440
180829,0.080,-0.450
180830,0.065,-0.455
180831,0.040,-0.455
180832,0.060,-0.450
180833,0.055,-0.450
180834,0.060,-0.460
180835,0.055,-0.460
180836,0.070,-0.455
180837,0.040,-0.450
180838,0.055,-0.435
180839,0.065,-0.465
180840,0.070,-0.455
180841,0.060,-0.455
180842,0.090,-0.455
180843,0.080,-0.430
180844,0.075,-0.455
180845,0.065,-0.440
180846,0.075,-0.430
180847,0.070,-0.445
180848,0.070,-0.420
180849,0.065,-0.410
180850,0.075,-0.365
180851,0.045,-0.290
180852,0.060,-0.145
180853,0.075,0.040
180854,0.195,0.330
180855,0.255,0.635
180856,0.180,0.920
180857,-0.130,1.075
180858,-0.570,1.260
180859,-1.320,1.470
180860,-2.000,1.660
180861,-2.550,1.695
180862,-2.815,1.605
180863,-2.845,1.480
180864,-2.765,1.300
180865,-2.640,1.100
180866,-2.505,0.925
180867,-2.420,0.720
180868,-2.275,0.605
180869,-2.085,0.615
180870,-1.960,0.830
180871,-1.830,1.070
180872,-1.715,1.215
180873,-1.555,0.985
180874,-1.405,0.500
180875,-1.275,-0.100
180876,-1.145,-0.535
180877,-1.000,-0.690
180878,-0.830,-0.735
180879,-0.655,-0.700
180880,-0.485,-0.685
180881,-0.285,-0.670
180882,-0.075,-0.630
180883,0.105,-0.600
180884,0.295,-0.580
180885,0.385,-0.575
180886,0.485,-0.585
180887,0.540,-0.565
180888,0.570,-0.565
180889,0.590,-0.530
180890,0.625,-0.500
180891,0.640,-0.515
180892,0.635,-0.510
180893,0.665,-0.505
180894,0.680,-0.505
180895,0.695,-0.500
180896,0.695,-0.495
180897,0.685,-0.480
180898,0.715,-0.485
180899,0.730,-0.460
180900,0.745,-0.470
180901,0.740,-0.450
180902,0.770,-0.430
180903,0.800,-0.460
180904,0.810,-0.475
180905,0.820,-0.460
180906,0.830,-0.450
180907,0.855,-0.470
180908,0.880,-0.475
180909,0.880,-0.475
180910,0.925,-0.505
180911,0.935,-0.540
180912,0.955,-0.535
180913,0.980,-0.575
180914,1.015,-0.575
180915,1.055,-0.595
180916,1.055,-0.600
180917,1.090,-0.600
180918,1.105,-0.615
180919,1.125,-0.625
180920,1.125,-0.645
180921,1.135,-0.640
180922,1.120,-0.655
180923,1.130,-0.620
180924,1.110,-0.595
180925,1.105,-0.570
180926,1.075,-0.545
180927,1.030,-0.525
180928,1.015,-0.500
180929,0.975,-0.470
180930,0.920,-0.425
180931,0.885,-0.390
180932,0.830,-0.380
180933,0.775,-0.365
180934,0.730,-0.345
180935,0.670,-0.320
180936,0.605,-0.320
180937,0.565,-0.340
180938,0.500,-0.335
180939,0.440,-0.340
180940,0.395,-0.360
180941,0.365,-0.360
180942,0.290,-0.360
180943,0.285,-0.380
180944,0.260,-0.410
180945,0.225,-0.400
180946,0.185,-0.400
180947,0.190,-0.415
180948,0.185,-0.420
180949,0.155,-0.420
180950,0.150,-0.415
180951,0.140,-0.430
180952,0.130,-0.445
180953,0.130,-0.440
180954,0.140,-0.435
180955,0.120,-0.440
180956,0.105,-0.425
180957,0.115,-0.440
180958,0.115,-0.465
180959,0.120,-0.445
180960,0.105,-0.465
180961,0.100,-0.465
180962,0.130,-0.480
180963,0.120,-0.485
180964,0.115,-0.475
180965,0.120,-0.505
180966,0.140,-0.475
180967,0.125,-0.495
180968,0.115,-0.495
180969,0.135,-0.520
180970,0.140,-0.535
180971,0.140,-0.520
180972,0.140,-0.530
180973,0.135,-0.510
180974,0.145,-0.510
180975,0.125,-0.525
180976,0.140,-0.525
180977,0.130,-0.510
180978,0.130,-0.520
180979,0.150,-0.515
180980,0.160,-0.505
180981,0.150,-0.525
180982,0.145,-0.515
180983,0.130,-0.505
180984,0.140,-0.495
180985,0.130,-0.500
180986,0.145,-0.520
180987,0.135,-0.485
180988,0.125,-0.500
180989,0.105,-0.500
180990,0.095,-0.495
180991,0.100,-0.490
180992,0.090,-0.515
180993,0.100,-0.510
180994,0.095,-0.500
180995,0.110,-0.500
180996,0.105,-0.490
180997,0.115,-0.500
180998,0.115,-0.495
180999,0.100,-0.500
181000,0.085,-0.505
181001,0.080,-0.505
181002,0.075,-0.485
181003,0.085,-0.495
181004,0.080,-0.490
181005,0.075,-0.500
181006,0.100,-0.480
181007,0.090,-0.470
181008,0.080,-0.480
181009,0.070,-0.485
181010,0.080,-0.480
181011,0.100,-0.480
181012,0.095,-0.475
181013,0.085,-0.470
181014,0.095,-0.465
181015,0.095,-0.445
181016,0.085,-0.430
181017,0.095,-0.385
181018,0.095,-0.360
181019,0.115,-0.350
181020,0.140,-0.320
181021,0.155,-0.295
181022,0.200,-0.270
181023,0.210,-0.240
181024,0.250,-0.250
181025,0.295,-0.255
181026,0.285,-0.320
181027,0.275,-0.350
181028,0.205,-0.345
181029,0.175,-0.320
181030,0.150,-0.365
181031,0.150,-0.390
181032,0.120,-0.410
181033,0.085,-0.430
181034,0.060,-0.410
181035,0.045,-0.450
181036,0.060,-0.495
181037,0.065,-0.505
181038,0.075,-0.515
181039,0.085,-0.495
181040,0.040,-0.515
181041,0.055,-0.520
181042,0.050,-0.520
181043,0.055,-0.485
181044,0.045,-0.495
181045,0.050,-0.480
181046,0.035,-0.505
181047,0.065,-0.505
181048,0.050,-0.480
181049,0.070,-0.505
181050,0.065,-0.505
181051,0.060,-0.500
181052,0.065,-0.490
181053,0.050,-0.495
181054,0.040,-0.510
181055,0.050,-0.480
181056,0.065,-0.475
181057,0.055,-0.460
181058,0.065,-0.480
181059,0.065,-0.430
181060,0.055,-0.425
181061,0.045,-0.335
181062,0.075,-0.185
181063,0.120,0.050
181064,0.170,0.350
181065,0.255,0.720
181066,0.185,1.025
181067,-0.070,1.250
181068,-0.460,1.425
181069,-1.070,1.595
181070,-1.780,1.850
181071,-2.310,1.945
181072,-2.655,1.895
181073,-2.800,1.775
181074,-2.710,1.590
181075,-2.590,1.325
181076,-2.380,1.135
181077,-2.260,0.960
181078,-2.180,0.805
181079,-2.020,0.740
181080,-1.850,0.865
181081,-1.770,1.100
181082,-1.655,1.345
181083,-1.520,1.410
181084,-1.370,1.165
181085,-1.250,0.625
181086,-1.120,0.055
181087,-0.980,-0.340
181088,-0.845,-0.575
181089,-0.710,-0.665
181090,-0.520,-0.725
181091,-0.355,-0.745
181092,-0.150,-0.715
181093,0.020,-0.660
181094,0.155,-0.650
181095,0.315,-0.640
181096,0.420,-0.640
181097,0.490,-0.605
181098,0.530,-0.600
181099,0.570,-0.610
181100,0.580,-0.610
181101,0.595,-0.600
181102,0.640,-0.575
181103,0.630,-0.575
181104,0.670,-0.600
181105,0.670,-0.555
181106,0.665,-0.565
181107,0.685,-0.545
181108,0.690,-0.540
181109,0.700,-0.525
181110,0.695,-0.530
181111,0.730,-0.505
181112,0.740,-0.510
181113,0.745,-0.490
181114,0.765,-0.475
181115,0.770,-0.515
181116,0.790,-0.520
181117,0.810,-0.515
181118,0.805,-0.500
181119,0.835,-0.525
181120,0.855,-0.525
181121,0.885,-0.540
181122,0.920,-0.565
181123,0.905,-0.580
181124,0.945,-0.570
181125,0.980,-0.580
181126,1.010,-0.595
181127,1.030,-0.620
181128,1.035,-0.655
181129,1.065,-0.650
181130,1.075,-0.640
181131,1.095,-0.640
181132,1.120,-0.650
181133,1.090,-0.620
181134,1.105,-0.630
181135,1.115,-0.605
181136,1.085,-0.575
181137,1.040,-0.525
181138,1.035,-0.510
181139,0.990,-0.470
181140,0.940,-0.420
181141,0.890,-0.380
181142,0.845,-0.365
181143,0.790,-0.360
181144,0.760,-0.355
181145,0.685,-0.320
181146,0.630,-0.310
181147,0.585,-0.315
181148,0.515,-0.335
181149,0.475,-0.330
181150,0.450,-0.335
181151,0.385,-0.360
181152,0.335,-0.375
181153,0.285,-0.365
181154,0.260,-0.375
181155,0.240,-0.395
181156,0.225,-0.380
181157,0.205,-0.410
181158,0.200,-0.400
181159,0.185,-0.430
181160,0.155,-0.425
181161,0.165,-0.435
181162,0.125,-0.445
181163,0.130,-0.420
181164,0.140,-0.435
181165,0.150,-0.450
181166,0.145,-0.440
181167,0.110,-0.455
181168,0.115,-0.465
181169,0.125,-0.465
181170,0.125,-0.470
181171,0.135,-0.490
181172,0.140,-0.480
181173,0.140,-0.465
181174,0.130,-0.475
181175,0.140,-0.500
181176,0.145,-0.495
181177,0.150,-0.490
181178,0.145,-0.500
181179,0.135,-0.515
181180,0.145,-0.520
181181,0.130,-0.535
181182,0.125,-0.510
181183,0.130,-0.510
181184,0.130,-0.525
181185,0.120,-0.510
181186,0.095,-0.510
181187,0.130,-0.520
181188,0.115,-0.530
181189,0.135,-0.500
181190,0.130,-0.515
181191,0.140,-0.520
181192,0.125,-0.520
181193,0.125,-0.530
181194,0.120,-0.510
181195,0.125,-0.520
181196,0.120,-0.530
181197,0.105,-0.525
181198,0.100,-0.520
181199,0.115,-0.525
181200,0.085,-0.515
181201,0.080,-0.515
181202,0.090,-0.520
181203,0.110,-0.495
181204,0.085,-0.515
181205,0.085,-0.510
181206,0.095,-0.500
181207,0.070,-0.480
181208,0.085,-0.495
181209,0.095,-0.500
181210,0.075,-0.515
181211,0.080,-0.505
181212,0.055,-0.480
181213,0.075,-0.490
181214,0.085,-0.485
181215,0.075,-0.485
181216,0.070,-0.475
181217,0.065,-0.495
181218,0.065,-0.500
181219,0.035,-0.480
181220,0.060,-0.475
181221,0.085,-0.480
181222,0.085,-0.495
181223,0.060,-0.470
181224,0.070,-0.465
181225,0.080,-0.445
181226,0.075,-0.415
181227,0.080,-0.400
181228,0.070,-0.375
181229,0.090,-0.355
181230,0.115,-0.340
181231,0.130,-0.290
181232,0.150,-0.265
181233,0.180,-0.240
181234,0.225,-0.255
181235,0.240,-0.260
181236,0.230,-0.290
181237,0.235,-0.320
181238,0.215,-0.355
181239,0.175,-0.340
181240,0.135,-0.355
181241,0.125,-0.390
181242,0.105,-0.405
181243,0.110,-0.445
181244,0.060,-0.430
181245,0.050,-0.455
181246,0.035,-0.520
181247,0.020,-0.535
181248,0.035,-0.540
181249,0.025,-0.540
181250,0.025,-0.560
181251,0.040,-0.530
181252,0.025,-0.530
181253,0.015,-0.545
181254,0.030,-0.545
181255,0.020,-0.550
181256,0.030,-0.545
181257,0.015,-0.545
181258,0.020,-0.520
181259,0.020,-0.540
181260,0.000,-0.560
181261,-0.005,-0.530
181262,0.015,-0.545
181263,0.000,-0.550
181264,-0.010,-0.545
181265,0.000,-0.525
181266,0.000,-0.530
181267,0.015,-0.525
181268,-0.010,-0.535
181269,0.000,-0.510
181270,0.000,-0.490
181271,0.010,-0.460
181272,0.010,-0.370
181273,0.025,-0.170
181274,0.035,0.070
181275,0.135,0.440
181276,0.205,0.850
181277,0.095,1.160
181278,-0.220,1.410
181279,-0.660,1.605
181280,-1.345,1.825
181281,-2.040,2.030
181282,-2.535,2.070
181283,-2.770,1.985
181284,-2.825,1.850
181285,-2.715,1.700
181286,-2.585,1.475
181287,-2.415,1.275
181288,-2.275,1.150
181289,-2.160,1.010
181290,-1.990,0.940
181291,-1.835,1.060
181292,-1.735,1.310
181293,-1.615,1.585
181294,-1.485,1.580
181295,-1.360,1.210
181296,-1.195,0.630
181297,-1.085,0.090
181298,-0.955,-0.335
181299,-0.795,-0.600
181300,-0.625,-0.685
181301,-0.440,-0.730
181302,-0.250,-0.750
181303,-0.075,-0.740
181304,0.100,-0.710
181305,0.255,-0.685
181306,0.370,-0.665
181307,0.430,-0.690
181308,0.525,-0.675
181309,0.550,-0.690
181310,0.560,-0.680
181311,0.570,-0.670
181312,0.625,-0.650
181313,0.660,-0.650
181314,0.670,-0.625
181315,0.655,-0.620
181316,0.665,-0.610
181317,0.670,-0.585
181318,0.700,-0.595
181319,0.690,-0.580
181320,0.715,-0.575
181321,0.730,-0.600
181322,0.730,-0.590
181323,0.735,-0.585
181324,0.745,-0.580
181325,0.775,-0.585
181326,0.785,-0.575
181327,0.800,-0.585
181328,0.810,-0.590
181329,0.830,-0.595
181330,0.870,-0.605
181331,0.870,-0.615
181332,0.900,-0.635
181333,0.920,-0.655
181334,0.930,-0.655
181335,0.965,-0.665
181336,0.995,-0.695
181337,1.040,-0.715
181338,1.055,-0.710
181339,1.045,-0.730
181340,1.070,-0.745
181341,1.090,-0.755
181342,1.105,-0.765
181343,1.125,-0.730
181344,1.125,-0.735
181345,1.130,-0.725
181346,1.105,-0.710
181347,1.115,-0.675
181348,1.075,-0.665
181349,1.050,-0.625
181350,1.035,-0.590
181351,1.010,-0.525
181352,0.955,-0.495
181353,0.920,-0.465
181354,0.875,-0.435
181355,0.845,-0.410
181356,0.800,-0.380
181357,0.725,-0.370
181358,0.670,-0.355
181359,0.625,-0.355
181360,0.575,-0.340
181361,0.520,-0.360
181362,0.460,-0.380
181363,0.410,-0.390
181364,0.365,-0.385
181365,0.345,-0.385
181366,0.300,-0.405
181367,0.290,-0.390
181368,0.285,-0.395
181369,0.260,-0.410
181370,0.240,-0.405
181371,0.225,-0.415
181372,0.210,-0.430
181373,0.185,-0.420
181374,0.175,-0.430
181375,0.190,-0.435
181376,0.195,-0.435
181377,0.190,-0.440
181378,0.165,-0.440
181379,0.200,-0.470
181380,0.170,-0.460
181381,0.185,-0.455
181382,0.170,-0.480
181383,0.185,-0.480
181384,0.205,-0.480
181385,0.205,-0.485
181386,0.190,-0.490
181387,0.190,-0.490
181388,0.195,-0.505
181389,0.220,-0.500
181390,0.205,-0.510
181391,0.190,-0.505
181392,0.185,-0.500
181393,0.205,-0.495
181394,0.215,-0.495
181395,0.205,-0.510
181396,0.225,-0.495
181397,0.190,-0.495
181398,0.205,-0.510
181399,0.205,-0.500
181400,0.215,-0.515
181401,0.205,-0.510
181402,0.200,-0.510
181403,0.185,-0.510
181404,0.200,-0.505
181405,0.170,-0.510
181406,0.200,-0.510
181407,0.190,-0.505
181408,0.205,-0.490
181409,0.190,-0.485
181410,0.185,-0.505
181411,0.160,-0.505
181412,0.170,-0.485
181413,0.175,-0.500
181414,0.170,-0.500
181415,0.155,-0.520
181416,0.150,-0.510
181417,0.155,-0.490
181418,0.155,-0.515
181419,0.130,-0.505
181420,0.180,-0.475
181421,0.135,-0.470
181422,0.145,-0.470
181423,0.130,-0.495
181424,0.125,-0.495
181425,0.125,-0.460
181426,0.150,-0.470
181427,0.140,-0.475
181428,0.140,-0.450
181429,0.140,-0.465
181430,0.120,-0.465
181431,0.100,-0.445
181432,0.110,-0.420
181433,0.135,-0.350
181434,0.150,-0.345
181435,0.155,-0.340
181436,0.185,-0.315
181437,0.250,-0.275
181438,0.235,-0.260
181439,0.265,-0.255
181440,0.295,-0.245
181441,0.285,-0.250
181442,0.310,-0.280
181443,0.295,-0.335
181444,0.275,-0.330
181445,0.225,-0.310
181446,0.200,-0.335
181447,0.190,-0.370
181448,0.175,-0.390
181449,0.160,-0.380
181450,0.125,-0.390
181451,0.105,-0.440
181452,0.075,-0.500
181453,0.090,-0.510
181454,0.105,-0.515
181455,0.105,-0.535
181456,0.095,-0.530
181457,0.095,-0.535
181458,0.105,-0.520
181459,0.105,-0.500
181460,0.105,-0.520
181461,0.100,-0.520
181462,0.120,-0.510
181463,0.090,-0.525
181464,0.110,-0.530
181465,0.080,-0.540
181466,0.090,-0.520
181467,0.085,-0.515
181468,0.085,-0.520
181469,0.085,-0.525
181470,0.090,-0.500
181471,0.100,-0.515
181472,0.100,-0.495
181473,0.080,-0.500
181474,0.100,-0.495
181475,0.105,-0.485
181476,0.095,-0.470
181477,0.075,-0.440
181478,0.095,-0.360
181479,0.110,-0.200
181480,0.140,-0.015
181481,0.215,0.240
181482,0.260,0.585
181483,0.220,0.825
181484,-0.060,0.985
181485,-0.560,1.180
181486,-1.250,1.405
181487,-2.005,1.605
181488,-2.520,1.615
181489,-2.780,1.540
181490,-2.785,1.450
181491,-2.670,1.260
181492,-2.520,1.075
181493,-2.350,0.910
181494,-2.255,0.750
181495,-2.115,0.655
181496,-1.940,0.710
181497,-1.810,0.895
181498,-1.680,1.140
181499,-1.565,1.260
181500,-1.410,1.005
181501,-1.260,0.470
181502,-1.170,-0.120
181503,-1.050,-0.500
181504,-0.895,-0.720
181505,-0.715,-0.770
181506,-0.575,-0.740
181507,-0.370,-0.710
181508,-0.170,-0.705
181509,0.030,-0.670
181510,0.215,-0.625
181511,0.375,-0.610
181512,0.490,-0.610
181513,0.555,-0.630
181514,0.625,-0.625
181515,0.640,-0.585
181516,0.665,-0.570
181517,0.680,-0.580
181518,0.710,-0.555
181519,0.720,-0.530
181520,0.740,-0.545
181521,0.735,-0.545
181522,0.760,-0.535
181523,0.765,-0.510
181524,0.785,-0.510
181525,0.810,-0.525
181526,0.810,-0.525
181527,0.840,-0.500
181528,0.845,-0.505
181529,0.870,-0.510
181530,0.870,-0.510
181531,0.895,-0.500
181532,0.900,-0.520
181533,0.915,-0.515
181534,0.940,-0.515
181535,0.970,-0.545
181536,1.010,-0.535
181537,1.040,-0.575
181538,1.055,-0.585
181539,1.070,-0.575
181540,1.100,-0.595
181541,1.150,-0.615
181542,1.155,-0.630
181543,1.170,-0.640
181544,1.215,-0.670
181545,1.220,-0.660
181546,1.230,-0.680
181547,1.240,-0.675
181548,1.250,-0.660
181549,1.270,-0.660
181550,1.265,-0.620
181551,1.245,-0.590
181552,1.235,-0.560
181553,1.185,-0.550
181554,1.155,-0.520
181555,1.095,-0.475
181556,1.065,-0.420
181557,1.025,-0.410
181558,0.955,-0.385
181559,0.920,-0.345
181560,0.840,-0.340
181561,0.800,-0.340
181562,0.740,-0.330
181563,0.695,-0.330
181564,0.625,-0.340
181565,0.570,-0.345
181566,0.525,-0.360
181567,0.500,-0.345
181568,0.450,-0.355
181569,0.430,-0.360
181570,0.370,-0.365
181571,0.355,-0.385
181572,0.350,-0.395
181573,0.325,-0.390
181574,0.300,-0.410
181575,0.285,-0.400
181576,0.275,-0.400
181577,0.280,-0.420
181578,0.270,-0.440
181579,0.270,-0.410
181580,0.265,-0.430
181581,0.290,-0.460
181582,0.250,-0.450
181583,0.255,-0.450
181584,0.265,-0.445
181585,0.260,-0.470
181586,0.265,-0.460
181587,0.275,-0.460
181588,0.250,-0.490
181589,0.240,-0.490
181590,0.265,-0.480
181591,0.275,-0.460
181592,0.255,-0.485
181593,0.280,-0.490
181594,0.275,-0.475
181595,0.280,-0.470
181596,0.260,-0.470
181597,0.260,-0.485
181598,0.265,-0.465
181599,0.275,-0.470
181600,0.250,-0.480
181601,0.290,-0.480
181602,0.255,-0.490
181603,0.260,-0.475
181604,0.265,-0.485
181605,0.255,-0.460
181606,0.265,-0.480
181607,0.270,-0.470
181608,0.275,-0.470
181609,0.255,-0.475
181610,0.270,-0.455
181611,0.230,-0.450
181612,0.245,-0.470
181613,0.235,-0.470
181614,0.240,-0.480
181615,0.240,-0.480
181616,0.245,-0.475
181617,0.220,-0.485
181618,0.210,-0.460
181619,0.220,-0.445
181620,0.220,-0.450
181621,0.215,-0.465
181622,0.210,-0.445
181623,0.235,-0.445
181624,0.235,-0.450
181625,0.210,-0.460
181626,0.210,-0.460
181627,0.235,-0.455
181628,0.225,-0.460
181629,0.210,-0.445
181630,0.210,-0.435
181631,0.215,-0.430
181632,0.225,-0.410
181633,0.220,-0.360
181634,0.210,-0.335
181635,0.220,-0.315
181636,0.270,-0.310
181637,0.325,-0.275
181638,0.310,-0.245
181639,0.335,-0.255
181640,0.365,-0.245
181641,0.385,-0.250
181642,0.380,-0.255
181643,0.410,-0.295
181644,0.365,-0.320
181645,0.315,-0.325
181646,0.290,-0.355
181647,0.230,-0.390
181648,0.230,-0.390
181649,0.200,-0.395
181650,0.165,-0.400
181651,0.150,-0.460
181652,0.155,-0.525
181653,0.150,-0.505
181654,0.170,-0.505
181655,0.140,-0.525
181656,0.145,-0.530
181657,0.140,-0.515
181658,0.120,-0.545
181659,0.145,-0.530
181660,0.135,-0.540
181661,0.150,-0.520
181662,0.140,-0.540
181663,0.115,-0.535
181664,0.135,-0.535
181665,0.120,-0.515
181666,0.120,-0.490
181667,0.110,-0.520
181668,0.150,-0.505
181669,0.125,-0.525
181670,0.140,-0.520
181671,0.150,-0.510
181672,0.140,-0.520
181673,0.115,-0.480
181674,0.130,-0.490
181675,0.125,-0.465
181676,0.135,-0.365
181677,0.140,-0.195
181678,0.160,0.005
181679,0.225,0.345
181680,0.320,0.705
181681,0.235,0.940
181682,-0.090,1.100
181683,-0.590,1.295
181684,-1.355,1.565
181685,-2.090,1.705
181686,-2.595,1.690
181687,-2.765,1.610
181688,-2.790,1.450
181689,-2.680,1.260
181690,-2.545,1.050
181691,-2.380,0.870
181692,-2.320,0.710
181693,-2.145,0.610
181694,-1.980,0.650
181695,-1.860,0.860
181696,-1.740,1.140
181697,-1.580,1.195
181698,-1.440,0.890
181699,-1.320,0.345
181700,-1.145,-0.200
181701,-1.025,-0.550
181702,-0.870,-0.735
181703,-0.675,-0.770
181704,-0.495,-0.785
181705,-0.260,-0.755
181706,-0.070,-0.735
181707,0.120,-0.695
181708,0.310,-0.640
181709,0.440,-0.640
181710,0.515,-0.640
181711,0.590,-0.650
181712,0.630,-0.625
181713,0.645,-0.610
181714,0.705,-0.610
181715,0.720,-0.590
181716,0.720,-0.590
181717,0.740,-0.580
181718,0.745,-0.580
181719,0.750,-0.540
181720,0.775,-0.550
181721,0.775,-0.525
181722,0.810,-0.550
181723,0.840,-0.520
181724,0.815,-0.510
181725,0.825,-0.490
181726,0.850,-0.505
181727,0.865,-0.495
181728,0.870,-0.500
181729,0.880,-0.505
181730,0.910,-0.510
181731,0.930,-0.520
181732,0.970,-0.515
181733,0.970,-0.525
181734,1.000,-0.580
181735,1.040,-0.580
181736,1.065,-0.610
181737,1.095,-0.625
181738,1.110,-0.630
181739,1.145,-0.650
181740,1.140,-0.650
181741,1.170,-0.660
181742,1.195,-0.695
181743,1.195,-0.680
181744,1.220,-0.665
181745,1.225,-0.700
181746,1.215,-0.685
181747,1.195,-0.630
181748,1.170,-0.610
181749,1.125,-0.580
181750,1.110,-0.540
181751,1.060,-0.500
181752,1.015,-0.460
181753,0.975,-0.450
181754,0.920,-0.400
181755,0.870,-0.385
181756,0.795,-0.380
181757,0.755,-0.370
181758,0.690,-0.355
181759,0.610,-0.340
181760,0.575,-0.360
181761,0.515,-0.375
181762,0.470,-0.380
181763,0.435,-0.390
181764,0.390,-0.420
181765,0.335,-0.425
181766,0.295,-0.420
181767,0.290,-0.415
181768,0.260,-0.420
181769,0.255,-0.425
181770,0.255,-0.450
181771,0.225,-0.435
181772,0.215,-0.445
181773,0.200,-0.470
181774,0.205,-0.450
181775,0.185,-0.470
181776,0.190,-0.480
181777,0.225,-0.470
181778,0.230,-0.470
181779,0.220,-0.470
181780,0.185,-0.480
181781,0.190,-0.495
181782,0.185,-0.490
181783,0.200,-0.500
181784,0.215,-0.500
181785,0.205,-0.500
181786,0.180,-0.490
181787,0.205,-0.470
181788,0.215,-0.495
181789,0.240,-0.490
181790,0.215,-0.500
181791,0.240,-0.515
181792,0.245,-0.510
181793,0.225,-0.515
181794,0.230,-0.520
181795,0.240,-0.525
181796,0.230,-0.535
181797,0.250,-0.510
181798,0.280,-0.495
181799,0.235,-0.500
181800,0.245,-0.500
181801,0.230,-0.520
181802,0.220,-0.490
181803,0.220,-0.500
181804,0.220,-0.505
181805,0.220,-0.510
181806,0.225,-0.490
181807,0.240,-0.510
181808,0.210,-0.490
181809,0.200,-0.495
181810,0.180,-0.485
181811,0.210,-0.500
181812,0.215,-0.505
181813,0.210,-0.465
181814,0.195,-0.495
181815,0.195,-0.505
181816,0.195,-0.500
181817,0.195,-0.480
181818,0.195,-0.465
181819,0.180,-0.500
181820,0.160,-0.480
181821,0.175,-0.465
181822,0.170,-0.455
181823,0.170,-0.465
181824,0.155,-0.485
181825,0.155,-0.470
181826,0.170,-0.445
181827,0.175,-0.435
181828,0.165,-0.425
181829,0.170,-0.430
181830,0.150,-0.390
181831,0.175,-0.355
181832,0.170,-0.325
181833,0.165,-0.300
181834,0.185,-0.275
181835,0.210,-0.290
181836,0.230,-0.265
181837,0.265,-0.220
181838,0.295,-0.200
181839,0.305,-0.235
181840,0.310,-0.250
181841,0.320,-0.265
181842,0.320,-0.300
181843,0.315,-0.325
181844,0.280,-0.350
181845,0.200,-0.345
181846,0.195,-0.360
181847,0.200,-0.390
181848,0.175,-0.390
181849,0.125,-0.405
181850,0.100,-0.425
181851,0.110,-0.495
181852,0.100,-0.515
181853,0.110,-0.490
181854,0.110,-0.475
181855,0.085,-0.505
181856,0.100,-0.505
181857,0.095,-0.505
181858,0.090,-0.505
181859,0.110,-0.530
181860,0.100,-0.520
181861,0.085,-0.480
181862,0.095,-0.490
181863,0.100,-0.515
181864,0.085,-0.490
181865,0.080,-0.520
181866,0.090,-0.490
181867,0.105,-0.520
181868,0.075,-0.510
181869,0.090,-0.480
181870,0.085,-0.490
181871,0.095,-0.480
181872,0.095,-0.455
181873,0.100,-0.460
181874,0.090,-0.405
181875,0.110,-0.340
181876,0.110,-0.170
181877,0.140,0.070
181878,0.195,0.435
181879,0.285,0.840
181880,0.180,1.135
181881,-0.110,1.360
181882,-0.605,1.570
181883,-1.320,1.820
181884,-2.045,1.985
181885,-2.550,1.960
181886,-2.740,1.850
181887,-2.700,1.685
181888,-2.590,1.455
181889,-2.365,1.240
181890,-2.235,1.080
181891,-2.145,0.925
181892,-2.000,0.870
181893,-1.820,0.940
181894,-1.705,1.155
181895,-1.600,1.420
181896,-1.470,1.520
181897,-1.340,1.250
181898,-1.180,0.700
181899,-1.075,0.115
181900,-0.950,-0.320
181901,-0.815,-0.585
181902,-0.645,-0.700
181903,-0.470,-0.725
181904,-0.285,-0.745
181905,-0.100,-0.710
181906,0.065,-0.685
181907,0.260,-0.675
181908,0.380,-0.680
181909,0.485,-0.655
181910,0.550,-0.680
181911,0.595,-0.670
181912,0.610,-0.650
181913,0.650,-0.630
181914,0.670,-0.630
181915,0.690,-0.635
181916,0.685,-0.595
181917,0.685,-0.605
181918,0.705,-0.580
181919,0.705,-0.585
181920,0.715,-0.595
181921,0.715,-0.585
181922,0.735,-0.565
181923,0.755,-0.585
181924,0.760,-0.555
181925,0.790,-0.555
181926,0.780,-0.560
181927,0.815,-0.555
181928,0.835,-0.525
181929,0.845,-0.535
181930,0.865,-0.570
181931,0.875,-0.560
181932,0.905,-0.595
181933,0.935,-0.620
181934,0.935,-0.615
181935,0.960,-0.635
181936,0.990,-0.645
181937,1.005,-0.675
181938,1.060,-0.665
181939,1.060,-0.700
181940,1.085,-0.705
181941,1.085,-0.715
181942,1.105,-0.720
181943,1.140,-0.705
181944,1.140,-0.710
181945,1.120,-0.690
181946,1.095,-0.670
181947,1.095,-0.655
181948,1.070,-0.630
181949,1.035,-0.575
181950,1.035,-0.560
181951,0.995,-0.545
181952,0.950,-0.470
181953,0.915,-0.450
181954,0.890,-0.445
181955,0.800,-0.410
181956,0.765,-0.370
181957,0.720,-0.345
181958,0.670,-0.360
181959,0.600,-0.355
181960,0.570,-0.370
181961,0.520,-0.360
181962,0.460,-0.395
181963,0.430,-0.395
181964,0.390,-0.410
181965,0.345,-0.385
181966,0.345,-0.425
181967,0.290,-0.435
181968,0.260,-0.410
181969,0.250,-0.430
181970,0.245,-0.460
181971,0.225,-0.475
181972,0.205,-0.450
181973,0.215,-0.450
181974,0.190,-0.445
181975,0.195,-0.455
181976,0.215,-0.465
181977,0.180,-0.475
181978,0.190,-0.470
181979,0.195,-0.485
181980,0.190,-0.515
181981,0.195,-0.490
181982,0.195,-0.490
181983,0.195,-0.495
181984,0.210,-0.480
181985,0.185,-0.485
181986,0.200,-0.495
181987,0.210,-0.520
181988,0.210,-0.520
181989,0.225,-0.525
181990,0.215,-0.510
181991,0.220,-0.535
181992,0.200,-0.535
181993,0.225,-0.540
181994,0.205,-0.530
181995,0.195,-0.525
181996,0.220,-0.545
181997,0.190,-0.545
181998,0.200,-0.555
181999,0.205,-0.560
182000,0.210,-0.530
182001,0.215,-0.520
182002,0.210,-0.525
182003,0.175,-0.545
182004,0.180,-0.555
182005,0.185,-0.535
182006,0.190,-0.545
182007,0.170,-0.545
182008,0.175,-0.525
182009,0.190,-0.505
182010,0.180,-0.550
182011,0.175,-0.555
182012,0.165,-0.555
182013,0.175,-0.540
182014,0.175,-0.510
182015,0.170,-0.530
182016,0.165,-0.540
182017,0.155,-0.540
182018,0.170,-0.550
182019,0.150,-0.525
182020,0.155,-0.535
182021,0.160,-0.515
182022,0.160,-0.510
182023,0.150,-0.525
182024,0.150,-0.530
182025,0.180,-0.505
182026,0.175,-0.490
182027,0.160,-0.520
182028,0.145,-0.515
182029,0.175,-0.500
182030,0.160,-0.500
182031,0.150,-0.500
182032,0.160,-0.490
182033,0.160,-0.460
182034,0.170,-0.470
182035,0.165,-0.430
182036,0.155,-0.400
182037,0.170,-0.365
182038,0.180,-0.350
182039,0.210,-0.360
182040,0.220,-0.310
182041,0.240,-0.245
182042,0.280,-0.245
182043,0.310,-0.265
182044,0.315,-0.270
182045,0.325,-0.295
182046,0.315,-0.350
182047,0.285,-0.360
182048,0.235,-0.360
182049,0.200,-0.360
182050,0.175,-0.375
182051,0.205,-0.425
182052,0.195,-0.420
182053,0.140,-0.430
182054,0.125,-0.425
182055,0.115,-0.495
182056,0.100,-0.520
182057,0.095,-0.520
182058,0.120,-0.520
182059,0.105,-0.545
182060,0.095,-0.535
182061,0.090,-0.535
182062,0.090,-0.530
182063,0.085,-0.540
182064,0.095,-0.540
182065,0.085,-0.545
182066,0.105,-0.530
182067,0.085,-0.530
182068,0.115,-0.530
182069,0.090,-0.520
182070,0.085,-0.540
182071,0.105,-0.530
182072,0.105,-0.510
182073,0.085,-0.525
182074,0.095,-0.535
182075,0.095,-0.500
182076,0.120,-0.510
182077,0.105,-0.485
182078,0.095,-0.490
182079,0.105,-0.470
182080,0.085,-0.430
182081,0.085,-0.320
182082,0.090,-0.150
182083,0.155,0.105
182084,0.250,0.495
182085,0.285,0.935
182086,0.155,1.245
182087,-0.160,1.455
182088,-0.660,1.690
182089,-1.360,1.930
182090,-2.035,2.110
182091,-2.515,2.130
182092,-2.750,2.015
182093,-2.765,1.910
182094,-2.640,1.715
182095,-2.465,1.495
182096,-2.245,1.310
182097,-2.115,1.160
182098,-2.000,1.040
182099,-1.800,1.100
182100,-1.680,1.290
182101,-1.575,1.565
182102,-1.440,1.740
182103,-1.305,1.555
182104,-1.170,1.050
182105,-1.040,0.445
182106,-0.910,-0.080
182107,-0.800,-0.410
182108,-0.625,-0.630
182109,-0.475,-0.715
182110,-0.335,-0.740
182111,-0.140,-0.780
182112,0.020,-0.725
182113,0.200,-0.700
182114,0.330,-0.695
182115,0.455,-0.695
182116,0.525,-0.690
182117,0.610,-0.680
182118,0.620,-0.670
182119,0.620,-0.655
182120,0.655,-0.665
182121,0.675,-0.665
182122,0.690,-0.665
182123,0.720,-0.630
182124,0.690,-0.615
182125,0.710,-0.610
182126,0.730,-0.600
182127,0.730,-0.560
182128,0.750,-0.595
182129,0.755,-0.590
182130,0.785,-0.590
182131,0.795,-0.590
182132,0.810,-0.545
182133,0.830,-0.575
182134,0.835,-0.585
182135,0.855,-0.575
182136,0.860,-0.585
182137,0.875,-0.595
182138,0.905,-0.615
182139,0.930,-0.625
182140,0.960,-0.625
182141,0.990,-0.640
182142,1.005,-0.655
182143,1.020,-0.665
182144,1.055,-0.690
182145,1.075,-0.720
182146,1.105,-0.725
182147,1.105,-0.755
182148,1.125,-0.745
182149,1.145,-0.750
182150,1.175,-0.760
182151,1.165,-0.765
182152,1.180,-0.740
182153,1.175,-0.725
182154,1.160,-0.710
182155,1.175,-0.665
182156,1.120,-0.635
182157,1.095,-0.605
182158,1.055,-0.570
182159,1.040,-0.540
182160,1.005,-0.505
182161,0.930,-0.450
182162,0.905,-0.430
182163,0.860,-0.405
182164,0.790,-0.370
182165,0.735,-0.365
182166,0.665,-0.370
182167,0.655,-0.360
182168,0.560,-0.375
182169,0.525,-0.370
182170,0.460,-0.395
182171,0.425,-0.405
182172,0.390,-0.400
182173,0.390,-0.405
182174,0.330,-0.410
182175,0.315,-0.420
182176,0.295,-0.410
182177,0.240,-0.420
182178,0.250,-0.440
182179,0.240,-0.430
182180,0.215,-0.440
182181,0.225,-0.430
182182,0.195,-0.440
182183,0.195,-0.440
182184,0.195,-0.445
182185,0.175,-0.435
182186,0.190,-0.455
182187,0.185,-0.465
182188,0.175,-0.465
182189,0.175,-0.475
182190,0.180,-0.480
182191,0.180,-0.500
182192,0.195,-0.500
182193,0.190,-0.495
182194,0.190,-0.490
182195,0.190,-0.485
182196,0.185,-0.510
182197,0.205,-0.500
182198,0.165,-0.515
182199,0.190,-0.515
182200,0.180,-0.525
182201,0.205,-0.515
182202,0.200,-0.510
182203,0.180,-0.535
182204,0.205,-0.545
182205,0.205,-0.535
182206,0.185,-0.525
182207,0.195,-0.530
182208,0.185,-0.530
182209,0.185,-0.545
182210,0.180,-0.540
182211,0.190,-0.525
182212,0.175,-0.535
182213,0.195,-0.525
182214,0.165,-0.520
182215,0.165,-0.515
182216,0.165,-0.505
182217,0.185,-0.510
182218,0.190,-0.505
182219,0.165,-0.525
182220,0.160,-0.520
182221,0.165,-0.520
182222,0.190,-0.505
182223,0.155,-0.525
182224,0.170,-0.535
182225,0.160,-0.515
182226,0.170,-0.505
182227,0.165,-0.505
182228,0.155,-0.505
182229,0.175,-0.520
182230,0.175,-0.495
182231,0.165,-0.510
182232,0.170,-0.490
182233,0.160,-0.500
182234,0.155,-0.495
182235,0.150,-0.475
182236,0.150,-0.505
182237,0.140,-0.490
182238,0.175,-0.485
182239,0.145,-0.480
182240,0.160,-0.510
182241,0.150,-0.495
182242,0.160,-0.450
182243,0.145,-0.410
182244,0.150,-0.385
182245,0.160,-0.375
182246,0.195,-0.365
182247,0.235,-0.340
182248,0.235,-0.315
182249,0.290,-0.275
182250,0.295,-0.265
182251,0.325,-0.265
182252,0.330,-0.265
182253,0.315,-0.330
182254,0.300,-0.350
182255,0.300,-0.340
182256,0.230,-0.340
182257,0.205,-0.385
182258,0.180,-0.405
182259,0.190,-0.385
182260,0.185,-0.380
182261,0.145,-0.430
182262,0.120,-0.480
182263,0.140,-0.515
182264,0.125,-0.535
182265,0.110,-0.555
182266,0.140,-0.550
182267,0.120,-0.540
182268,0.130,-0.530
182269,0.110,-0.560
182270,0.120,-0.545
182271,0.120,-0.540
182272,0.125,-0.530
182273,0.100,-0.545
182274,0.095,-0.535
182275,0.135,-0.515
182276,0.115,-0.535
182277,0.125,-0.530
182278,0.125,-0.530
182279,0.090,-0.530
182280,0.105,-0.530
182281,0.100,-0.515
182282,0.135,-0.525
182283,0.115,-0.500
182284,0.110,-0.490
182285,0.130,-0.495
182286,0.125,-0.490
182287,0.140,-0.450
182288,0.125,-0.350
182289,0.150,-0.200
182290,0.135,-0.040
182291,0.190,0.240
182292,0.295,0.600
182293,0.245,0.840
182294,0.010,1.015
182295,-0.405,1.210
182296,-1.040,1.430
182297,-1.805,1.660
182298,-2.340,1.700
182299,-2.650,1.655
182300,-2.700,1.580
182301,-2.645,1.480
182302,-2.500,1.285
182303,-2.365,1.145
182304,-2.220,0.980
182305,-2.125,0.830
182306,-1.965,0.745
182307,-1.830,0.835
182308,-1.705,1.040
182309,-1.580,1.300
182310,-1.430,1.320
182311,-1.290,1.010
182312,-1.170,0.470
182313,-1.035,-0.090
182314,-0.955,-0.480
182315,-0.800,-0.680
182316,-0.660,-0.720
182317,-0.500,-0.700
182318,-0.310,-0.700
182319,-0.130,-0.700
182320,0.045,-0.675
182321,0.220,-0.605
182322,0.380,-0.600
182323,0.515,-0.605
182324,0.590,-0.620
182325,0.630,-0.600
182326,0.650,-0.580
182327,0.670,-0.570
182328,0.685,-0.590
182329,0.710,-0.545
182330,0.740,-0.555
182331,0.745,-0.545
182332,0.735,-0.555
182333,0.750,-0.535
182334,0.760,-0.520
182335,0.785,-0.505
182336,0.775,-0.525
182337,0.795,-0.475
182338,0.790,-0.505
182339,0.805,-0.500
182340,0.820,-0.505
182341,0.840,-0.500
182342,0.855,-0.490
182343,0.880,-0.505
182344,0.870,-0.515
182345,0.915,-0.520
182346,0.935,-0.530
182347,0.950,-0.525
182348,0.950,-0.555
182349,1.010,-0.565
182350,1.025,-0.555
182351,1.080,-0.575
182352,1.105,-0.585
182353,1.110,-0.610
182354,1.115,-0.620
182355,1.145,-0.640
182356,1.175,-0.650
182357,1.180,-0.680
182358,1.205,-0.660
182359,1.215,-0.665
182360,1.210,-0.685
182361,1.230,-0.665
182362,1.240,-0.635
182363,1.230,-0.620
182364,1.205,-0.595
182365,1.190,-0.570
182366,1.145,-0.545
182367,1.110,-0.525
182368,1.080,-0.455
182369,1.030,-0.440
182370,0.985,-0.400
182371,0.930,-0.370
182372,0.850,-0.355
182373,0.810,-0.365
182374,0.775,-0.335
182375,0.685,-0.315
182376,0.660,-0.330
182377,0.600,-0.330
182378,0.560,-0.340
182379,0.515,-0.335
182380,0.470,-0.340
182381,0.405,-0.365
182382,0.375,-0.380
182383,0.355,-0.375
182384,0.345,-0.380
182385,0.315,-0.395
182386,0.295,-0.410
182387,0.275,-0.385
182388,0.270,-0.420
182389,0.260,-0.425
182390,0.270,-0.420
182391,0.260,-0.425
182392,0.250,-0.435
182393,0.260,-0.440
182394,0.260,-0.440
182395,0.230,-0.455
182396,0.255,-0.445
182397,0.245,-0.445
182398,0.255,-0.465
182399,0.235,-0.475
182400,0.245,-0.470
182401,0.245,-0.470
182402,0.250,-0.475
182403,0.215,-0.460
182404,0.240,-0.480
182405,0.255,-0.500
182406,0.235,-0.495
182407,0.240,-0.505
182408,0.245,-0.485
182409,0.235,-0.495
182410,0.235,-0.495
182411,0.235,-0.510
182412,0.240,-0.485
182413,0.245,-0.515
182414,0.255,-0.500
182415,0.245,-0.490
182416,0.220,-0.495
182417,0.225,-0.490
182418,0.210,-0.500
182419,0.205,-0.525
182420,0.220,-0.495
182421,0.215,-0.495
182422,0.225,-0.500
182423,0.210,-0.485
182424,0.215,-0.480
182425,0.210,-0.495
182426,0.225,-0.480
182427,0.225,-0.490
182428,0.235,-0.475
182429,0.210,-0.495
182430,0.195,-0.515
182431,0.215,-0.505
182432,0.215,-0.485
182433,0.180,-0.480
182434,0.195,-0.495
182435,0.165,-0.480
182436,0.185,-0.465
182437,0.185,-0.480
182438,0.180,-0.480
182439,0.180,-0.470
182440,0.190,-0.470
182441,0.190,-0.485
182442,0.200,-0.480
182443,0.175,-0.485
182444,0.200,-0.465
182445,0.180,-0.460
182446,0.175,-0.470
182447,0.170,-0.505
182448,0.190,-0.475
182449,0.175,-0.450
182450,0.175,-0.465
182451,0.175,-0.465
182452,0.165,-0.435
182453,0.190,-0.385
182454,0.200,-0.350
182455,0.185,-0.355
182456,0.210,-0.310
182457,0.260,-0.285
182458,0.295,-0.265
182459,0.290,-0.275
182460,0.350,-0.255
182461,0.375,-0.220
182462,0.355,-0.260
182463,0.380,-0.290
182464,0.350,-0.320
182465,0.310,-0.300
182466,0.290,-0.325
182467,0.255,-0.360
182468,0.215,-0.400
182469,0.240,-0.395
182470,0.215,-0.390
182471,0.185,-0.440
182472,0.170,-0.485
182473,0.160,-0.520
182474,0.170,-0.515
182475,0.175,-0.525
182476,0.155,-0.520
182477,0.165,-0.520
182478,0.170,-0.510
182479,0.150,-0.525
182480,0.155,-0.555
182481,0.145,-0.530
182482,0.135,-0.540
182483,0.150,-0.525
182484,0.155,-0.535
182485,0.155,-0.520
182486,0.140,-0.505
182487,0.130,-0.535
182488,0.145,-0.530
182489,0.125,-0.540
182490,0.135,-0.505
182491,0.140,-0.500
182492,0.140,-0.520
182493,0.150,-0.525
182494,0.155,-0.500
182495,0.140,-0.500
182496,0.130,-0.475
182497,0.150,-0.440
182498,0.170,-0.330
182499,0.155,-0.210
182500,0.185,-0.025
182501,0.230,0.275
182502,0.340,0.575
182503,0.285,0.810
182504,0.000,0.945
182505,-0.435,1.130
182506,-1.115,1.330
182507,-1.870,1.525
182508,-2.450,1.510
182509,-2.715,1.445
182510,-2.760,1.355
182511,-2.655,1.205
182512,-2.535,1.020
182513,-2.400,0.860
182514,-2.290,0.700
182515,-2.150,0.550
182516,-1.970,0.520
182517,-1.865,0.640
182518,-1.740,0.880
182519,-1.600,1.060
182520,-1.460,0.895
182521,-1.305,0.440
182522,-1.170,-0.100
182523,-1.045,-0.545
182524,-0.875,-0.750
182525,-0.735,-0.805
182526,-0.575,-0.770
182527,-0.390,-0.715
182528,-0.220,-0.670
182529,-0.030,-0.655
182530,0.165,-0.605
182531,0.360,-0.575
182532,0.490,-0.580
182533,0.570,-0.590
182534,0.615,-0.570
182535,0.685,-0.540
182536,0.700,-0.530
182537,0.710,-0.520
182538,0.730,-0.530
182539,0.760,-0.520
182540,0.780,-0.510
182541,0.785,-0.490
182542,0.810,-0.485
182543,0.835,-0.470
182544,0.815,-0.495
182545,0.825,-0.475
182546,0.855,-0.470
182547,0.840,-0.465
182548,0.850,-0.450
182549,0.865,-0.470
182550,0.890,-0.470
182551,0.925,-0.470
182552,0.955,-0.485
182553,0.975,-0.485
182554,1.015,-0.505
182555,1.035,-0.500
182556,1.015,-0.510
182557,1.045,-0.530
182558,1.075,-0.515
182559,1.115,-0.540
182560,1.130,-0.570
182561,1.160,-0.570
182562,1.190,-0.590
182563,1.195,-0.605
182564,1.215,-0.620
182565,1.245,-0.635
182566,1.255,-0.635
182567,1.260,-0.635
182568,1.275,-0.625
182569,1.265,-0.635
182570,1.265,-0.610
182571,1.255,-0.560
182572,1.230,-0.530
182573,1.195,-0.535
182574,1.175,-0.485
182575,1.125,-0.465
182576,1.105,-0.410
182577,1.050,-0.380
182578,0.980,-0.365
182579,0.955,-0.320
182580,0.880,-0.310
182581,0.815,-0.300
182582,0.765,-0.300
182583,0.715,-0.290
182584,0.650,-0.300
182585,0.590,-0.300
182586,0.555,-0.320
182587,0.540,-0.320
182588,0.480,-0.320
182589,0.425,-0.350
182590,0.385,-0.360
182591,0.380,-0.365
182592,0.345,-0.395
182593,0.330,-0.390
182594,0.300,-0.375
182595,0.275,-0.385
182596,0.285,-0.405
182597,0.255,-0.415
182598,0.270,-0.440
182599,0.270,-0.415
182600,0.280,-0.420
182601,0.300,-0.425
182602,0.270,-0.440
182603,0.275,-0.420
182604,0.275,-0.445
182605,0.275,-0.465
182606,0.275,-0.480
182607,0.270,-0.455
182608,0.255,-0.460
182609,0.270,-0.455
182610,0.285,-0.455
182611,0.275,-0.450
182612,0.270,-0.450
182613,0.260,-0.470
182614,0.265,-0.470
182615,0.265,-0.460
182616,0.260,-0.470
182617,0.260,-0.480
182618,0.275,-0.475
182619,0.280,-0.460
182620,0.260,-0.475
182621,0.275,-0.460
182622,0.295,-0.480
182623,0.255,-0.470
182624,0.260,-0.485
182625,0.260,-0.510
182626,0.255,-0.485
182627,0.260,-0.480
182628,0.250,-0.470
182629,0.255,-0.470
182630,0.245,-0.470
182631,0.235,-0.460
182632,0.250,-0.495
182633,0.220,-0.470
182634,0.250,-0.490
182635,0.225,-0.465
182636,0.235,-0.460
182637,0.220,-0.475
182638,0.230,-0.455
182639,0.220,-0.455
182640,0.225,-0.460
182641,0.225,-0.470
182642,0.225,-0.450
182643,0.200,-0.455
182644,0.215,-0.425
182645,0.235,-0.430
182646,0.215,-0.430
182647,0.190,-0.430
182648,0.220,-0.445
182649,0.195,-0.440
182650,0.190,-0.450
182651,0.215,-0.435
182652,0.210,-0.410
182653,0.200,-0.450
182654,0.210,-0.445
182655,0.210,-0.425
182656,0.205,-0.430
182657,0.225,-0.445
182658,0.220,-0.450
182659,0.195,-0.420
182660,0.185,-0.410
182661,0.205,-0.405
182662,0.185,-0.415
182663,0.205,-0.360
182664,0.205,-0.350
182665,0.200,-0.315
182666,0.240,-0.275
182667,0.245,-0.240
182668,0.280,-0.220
182669,0.305,-0.215
182670,0.310,-0.200
182671,0.345,-0.205
182672,0.355,-0.260
182673,0.360,-0.295
182674,0.325,-0.305
182675,0.300,-0.300
182676,0.230,-0.325
182677,0.200,-0.370
182678,0.215,-0.360
182679,0.190,-0.350
182680,0.150,-0.380
182681,0.115,-0.410
182682,0.095,-0.460
182683,0.100,-0.460
182684,0.115,-0.475
182685,0.135,-0.495
182686,0.115,-0.490
182687,0.110,-0.500
182688,0.115,-0.475
182689,0.120,-0.485
182690,0.115,-0.490
182691,0.090,-0.495
182692,0.085,-0.490
182693,0.090,-0.490
182694,0.095,-0.485
182695,0.090,-0.475
182696,0.095,-0.470
182697,0.095,-0.490
182698,0.095,-0.470
182699,0.095,-0.460
182700,0.080,-0.470
182701,0.095,-0.470
182702,0.095,-0.460
182703,0.105,-0.480
182704,0.095,-0.470
182705,0.105,-0.440
182706,0.115,-0.380
182707,0.110,-0.265
182708,0.110,-0.115
182709,0.145,0.155
182710,0.260,0.505
182711,0.310,0.880
182712,0.170,1.130
182713,-0.150,1.320
182714,-0.640,1.500
182715,-1.370,1.725
182716,-2.085,1.900
182717,-2.540,1.880
182718,-2.765,1.805
182719,-2.735,1.640
182720,-2.620,1.390
182721,-2.440,1.180
182722,-2.285,1.025
182723,-2.175,0.855
182724,-2.015,0.825
182725,-1.845,0.935
182726,-1.715,1.180
182727,-1.600,1.455
182728,-1.485,1.390
182729,-1.325,1.010
182730,-1.175,0.460
182731,-1.035,-0.060
182732,-0.910,-0.415
182733,-0.745,-0.605
182734,-0.560,-0.670
182735,-0.400,-0.735
182736,-0.245,-0.745
182737,-0.040,-0.690
182738,0.115,-0.665
182739,0.285,-0.625
182740,0.420,-0.620
182741,0.480,-0.635
182742,0.540,-0.625
182743,0.585,-0.615
182744,0.625,-0.610
182745,0.640,-0.605
182746,0.665,-0.575
182747,0.670,-0.570
182748,0.660,-0.565
182749,0.670,-0.550
182750,0.680,-0.555
182751,0.675,-0.545
182752,0.685,-0.545
182753,0.710,-0.520
182754,0.705,-0.495
182755,0.745,-0.500
182756,0.740,-0.505
182757,0.770,-0.495
182758,0.785,-0.500
182759,0.800,-0.480
182760,0.800,-0.480
182761,0.835,-0.505
182762,0.855,-0.490
182763,0.885,-0.505
182764,0.905,-0.545
182765,0.910,-0.540
182766,0.940,-0.535
182767,0.985,-0.535
182768,0.985,-0.580
182769,1.020,-0.615
182770,1.045,-0.620
182771,1.070,-0.615
182772,1.085,-0.620
182773,1.105,-0.625
182774,1.125,-0.630
182775,1.155,-0.630
182776,1.135,-0.605
182777,1.120,-0.600
182778,1.105,-0.550
182779,1.080,-0.525
182780,1.065,-0.510
182781,1.030,-0.475
182782,0.990,-0.420
182783,0.950,-0.390
182784,0.900,-0.375
182785,0.870,-0.365
182786,0.815,-0.325
182787,0.775,-0.305
182788,0.715,-0.290
182789,0.680,-0.265
182790,0.615,-0.275
182791,0.550,-0.300
182792,0.530,-0.305
182793,0.470,-0.315
182794,0.435,-0.325
182795,0.395,-0.330
182796,0.350,-0.315
182797,0.300,-0.315
182798,0.310,-0.355
182799,0.270,-0.350
182800,0.255,-0.365
182801,0.240,-0.360
182802,0.250,-0.350
182803,0.250,-0.360
182804,0.210,-0.375
182805,0.215,-0.380
182806,0.195,-0.390
182807,0.190,-0.410
182808,0.200,-0.390
182809,0.205,-0.400
182810,0.230,-0.385
182811,0.200,-0.405
182812,0.215,-0.405
182813,0.220,-0.400
182814,0.235,-0.400
182815,0.200,-0.415
182816,0.200,-0.415
182817,0.220,-0.415
182818,0.230,-0.410
182819,0.215,-0.430
182820,0.225,-0.465
182821,0.225,-0.440
182822,0.225,-0.385
182823,0.225,-0.425
182824,0.230,-0.425
182825,0.205,-0.455
182826,0.210,-0.460
182827,0.240,-0.460
182828,0.190,-0.470
182829,0.185,-0.460
182830,0.195,-0.470
182831,0.215,-0.450
182832,0.195,-0.460
182833,0.190,-0.465
182834,0.185,-0.465
182835,0.175,-0.455
182836,0.175,-0.445
182837,0.150,-0.440
182838,0.160,-0.450
182839,0.175,-0.480
182840,0.150,-0.475
182841,0.165,-0.455
182842,0.150,-0.455
182843,0.150,-0.450
182844,0.150,-0.450
182845,0.150,-0.445
182846,0.155,-0.440
182847,0.150,-0.455
182848,0.155,-0.460
182849,0.160,-0.420
182850,0.175,-0.415
182851,0.145,-0.420
182852,0.145,-0.410
182853,0.140,-0.440
182854,0.150,-0.420
182855,0.145,-0.415
182856,0.120,-0.435
182857,0.145,-0.430
182858,0.135,-0.400
182859,0.130,-0.400
182860,0.115,-0.395
182861,0.125,-0.400
182862,0.135,-0.410
182863,0.130,-0.420
182864,0.140,-0.400
182865,0.140,-0.405
182866,0.145,-0.415
182867,0.140,-0.385
182868,0.120,-0.340
182869,0.130,-0.320
182870,0.155,-0.270
182871,0.175,-0.255
182872,0.220,-0.240
182873,0.230,-0.195
182874,0.250,-0.190
182875,0.285,-0.185
182876,0.295,-0.185
182877,0.295,-0.195
182878,0.320,-0.240
182879,0.290,-0.270
182880,0.240,-0.255
182881,0.220,-0.290
182882,0.190,-0.315
182883,0.185,-0.350
182884,0.160,-0.355
182885,0.135,-0.370
182886,0.125,-0.390
182887,0.100,-0.435
182888,0.095,-0.415
182889,0.095,-0.460
182890,0.100,-0.470
182891,0.110,-0.460
182892,0.095,-0.455
182893,0.060,-0.440
182894,0.110,-0.450
182895,0.080,-0.450
182896,0.090,-0.435
182897,0.085,-0.440
182898,0.085,-0.445
182899,0.080,-0.450
182900,0.095,-0.455
182901,0.100,-0.445
182902,0.090,-0.425
182903,0.100,-0.430
182904,0.095,-0.440
182905,0.105,-0.455
182906,0.090,-0.450
182907,0.085,-0.435
182908,0.110,-0.415
182909,0.105,-0.395
182910,0.110,-0.365
182911,0.105,-0.275
182912,0.100,-0.110
182913,0.130,0.125
182914,0.180,0.505
182915,0.285,0.960
182916,0.185,1.320
182917,-0.090,1.535
182918,-0.545,1.740
182919,-1.235,2.025
182920,-1.950,2.200
182921,-2.475,2.210
182922,-2.735,2.115
182923,-2.755,1.990
182924,-2.630,1.780
182925,-2.430,1.550
182926,-2.220,1.385
182927,-2.115,1.230
182928,-1.990,1.110
182929,-1.810,1.155
182930,-1.700,1.385
182931,-1.600,1.700
182932,-1.485,1.840
182933,-1.320,1.570
182934,-1.185,1.000
182935,-1.050,0.385
182936,-0.950,-0.135
182937,-0.810,-0.505
182938,-0.605,-0.640
182939,-0.470,-0.705
182940,-0.315,-0.735
182941,-0.130,-0.700
182942,0.045,-0.675
182943,0.185,-0.650
182944,0.340,-0.665
182945,0.440,-0.670
182946,0.485,-0.660
182947,0.520,-0.650
182948,0.540,-0.660
182949,0.575,-0.625
182950,0.585,-0.615
182951,0.615,-0.585
182952,0.615,-0.600
182953,0.630,-0.610
182954,0.645,-0.590
182955,0.655,-0.600
182956,0.675,-0.575
182957,0.665,-0.580
182958,0.695,-0.570
182959,0.715,-0.540
182960,0.700,-0.530
182961,0.730,-0.550
182962,0.765,-0.545
182963,0.755,-0.565
182964,0.785,-0.555
182965,0.795,-0.560
182966,0.835,-0.575
182967,0.840,-0.570
182968,0.855,-0.605
182969,0.890,-0.600
182970,0.925,-0.625
182971,0.945,-0.650
182972,0.975,-0.665
182973,0.995,-0.685
182974,1.030,-0.695
182975,1.045,-0.695
182976,1.050,-0.710
182977,1.070,-0.725
182978,1.095,-0.715
182979,1.095,-0.725
182980,1.120,-0.710
182981,1.100,-0.705
182982,1.105,-0.665
182983,1.070,-0.630
182984,1.065,-0.610
182985,1.030,-0.575
182986,0.985,-0.510
182987,0.945,-0.470
182988,0.910,-0.460
182989,0.855,-0.400
182990,0.825,-0.365
182991,0.775,-0.360
182992,0.710,-0.340
182993,0.655,-0.310
182994,0.615,-0.310
182995,0.555,-0.310
182996,0.505,-0.335
182997,0.445,-0.325
182998,0.400,-0.325
182999,0.365,-0.355
183000,0.310,-0.370
183001,0.320,-0.350
183002,0.260,-0.355
183003,0.260,-0.365
183004,0.240,-0.385
183005,0.215,-0.375
183006,0.215,-0.390
183007,0.175,-0.380
183008,0.185,-0.405
183009,0.200,-0.385
183010,0.180,-0.405
183011,0.195,-0.405
183012,0.180,-0.405
183013,0.185,-0.410
183014,0.145,-0.405
183015,0.180,-0.415
183016,0.180,-0.420
183017,0.175,-0.420
183018,0.180,-0.425
183019,0.170,-0.425
183020,0.170,-0.450
183021,0.195,-0.435
183022,0.190,-0.425
183023,0.195,-0.455
183024,0.185,-0.465
183025,0.185,-0.455
183026,0.195,-0.455
183027,0.190,-0.460
183028,0.160,-0.460
183029,0.185,-0.450
183030,0.195,-0.450
183031,0.215,-0.460
183032,0.190,-0.480
183033,0.190,-0.460
183034,0.205,-0.450
183035,0.215,-0.480
183036,0.220,-0.480
183037,0.175,-0.480
183038,0.195,-0.470
183039,0.200,-0.465
183040,0.195,-0.450
183041,0.180,-0.460
183042,0.190,-0.460
183043,0.200,-0.470
183044,0.190,-0.450
183045,0.170,-0.445
183046,0.170,-0.430
183047,0.170,-0.460
183048,0.185,-0.455
183049,0.180,-0.440
183050,0.195,-0.450
183051,0.175,-0.435
183052,0.185,-0.420
183053,0.195,-0.415
183054,0.185,-0.405
183055,0.170,-0.420
183056,0.180,-0.420
183057,0.170,-0.410
183058,0.205,-0.420
183059,0.190,-0.430
183060,0.170,-0.425
183061,0.170,-0.405
183062,0.170,-0.405
183063,0.190,-0.405
183064,0.185,-0.385
183065,0.170,-0.395
183066,0.160,-0.390
183067,0.165,-0.390
183068,0.195,-0.365
183069,0.195,-0.355
183070,0.160,-0.335
183071,0.165,-0.295
183072,0.170,-0.285
183073,0.190,-0.260
183074,0.230,-0.225
183075,0.280,-0.210
183076,0.280,-0.195
183077,0.325,-0.175
183078,0.325,-0.160
183079,0.370,-0.170
183080,0.360,-0.200
183081,0.320,-0.240
183082,0.330,-0.240
183083,0.300,-0.240
183084,0.270,-0.270
183085,0.220,-0.270
183086,0.225,-0.290
183087,0.205,-0.290
183088,0.185,-0.330
183089,0.155,-0.365
183090,0.145,-0.415
183091,0.165,-0.450
183092,0.165,-0.450
183093,0.140,-0.430
183094,0.135,-0.435
183095,0.150,-0.425
183096,0.135,-0.440
183097,0.150,-0.450
183098,0.150,-0.425
183099,0.120,-0.440
183100,0.120,-0.435
183101,0.155,-0.435
183102,0.135,-0.435
183103,0.145,-0.425
183104,0.145,-0.450
183105,0.135,-0.425
183106,0.130,-0.430
183107,0.130,-0.440
183108,0.140,-0.440
183109,0.115,-0.420
183110,0.145,-0.420
183111,0.135,-0.410
183112,0.145,-0.395
183113,0.135,-0.395
183114,0.125,-0.345
183115,0.150,-0.250
183116,0.155,-0.100
183117,0.190,0.155
183118,0.240,0.485
183119,0.335,0.845
183120,0.230,1.045
183121,-0.075,1.230
183122,-0.555,1.415
183123,-1.240,1.650
183124,-1.965,1.790
183125,-2.460,1.790
183126,-2.665,1.740
183127,-2.680,1.655
183128,-2.575,1.505
183129,-2.420,1.310
183130,-2.275,1.175
183131,-2.175,1.025
183132,-2.030,0.890
183133,-1.855,0.925
183134,-1.710,1.090
183135,-1.605,1.365
183136,-1.475,1.470
183137,-1.330,1.230
183138,-1.185,0.660
183139,-1.070,0.055
183140,-0.930,-0.355
183141,-0.780,-0.565
183142,-0.625,-0.610
183143,-0.465,-0.615
183144,-0.295,-0.625
183145,-0.115,-0.620
183146,0.075,-0.575
183147,0.250,-0.540
183148,0.420,-0.545
183149,0.535,-0.545
183150,0.590,-0.530
183151,0.625,-0.530
183152,0.640,-0.515
183153,0.675,-0.515
183154,0.715,-0.490
183155,0.730,-0.480
183156,0.725,-0.480
183157,0.755,-0.470
183158,0.765,-0.470
183159,0.775,-0.470
183160,0.785,-0.465
183161,0.800,-0.460
183162,0.810,-0.450
183163,0.815,-0.450
183164,0.835,-0.460
183165,0.830,-0.440
183166,0.840,-0.435
183167,0.860,-0.425
183168,0.870,-0.460
183169,0.905,-0.470
183170,0.910,-0.465
183171,0.935,-0.460
183172,0.960,-0.490
183173,0.985,-0.500
183174,1.000,-0.520
183175,1.015,-0.530
183176,1.045,-0.570
183177,1.075,-0.560
183178,1.100,-0.555
183179,1.100,-0.590
183180,1.130,-0.610
183181,1.150,-0.615
183182,1.160,-0.640
183183,1.165,-0.660
183184,1.170,-0.665
183185,1.190,-0.665
183186,1.180,-0.640
183187,1.185,-0.630
183188,1.165,-0.610
183189,1.175,-0.580
183190,1.145,-0.530
183191,1.105,-0.495
183192,1.090,-0.485
183193,1.045,-0.445
183194,1.005,-0.390
183195,0.960,-0.365
183196,0.920,-0.335
183197,0.845,-0.315
183198,0.810,-0.310
183199,0.745,-0.280
183200,0.725,-0.300
183201,0.645,-0.295
183202,0.615,-0.305
183203,0.550,-0.290
183204,0.510,-0.290
183205,0.480,-0.310
183206,0.430,-0.310
183207,0.405,-0.315
183208,0.365,-0.335
183209,0.350,-0.345
183210,0.335,-0.340
183211,0.305,-0.335
183212,0.305,-0.330
183213,0.270,-0.360
183214,0.240,-0.365
183215,0.235,-0.345
183216,0.260,-0.355
183217,0.245,-0.370
183218,0.240,-0.380
183219,0.240,-0.370
183220,0.245,-0.370
183221,0.225,-0.380
183222,0.260,-0.400
183223,0.245,-0.400
183224,0.235,-0.380
183225,0.235,-0.410
183226,0.250,-0.410
183227,0.235,-0.400
183228,0.245,-0.395
183229,0.250,-0.420
183230,0.250,-0.420
183231,0.250,-0.420
183232,0.265,-0.395
183233,0.255,-0.425
183234,0.250,-0.425
183235,0.260,-0.430
183236,0.275,-0.425
183237,0.270,-0.430
183238,0.250,-0.450
183239,0.270,-0.430
183240,0.275,-0.430
183241,0.255,-0.420
183242,0.245,-0.435
183243,0.255,-0.430
183244,0.255,-0.415
183245,0.255,-0.435
183246,0.235,-0.435
183247,0.265,-0.430
183248,0.260,-0.395
183249,0.270,-0.405
183250,0.265,-0.435
183251,0.270,-0.430
183252,0.250,-0.400
183253,0.260,-0.405
183254,0.260,-0.420
183255,0.260,-0.400
183256,0.245,-0.400
183257,0.245,-0.400
183258,0.245,-0.410
183259,0.265,-0.415
183260,0.235,-0.405
183261,0.250,-0.405
183262,0.235,-0.405
183263,0.230,-0.420
183264,0.235,-0.415
183265,0.245,-0.380
183266,0.255,-0.395
183267,0.230,-0.395
183268,0.235,-0.375
183269,0.255,-0.380
183270,0.235,-0.400
183271,0.230,-0.395
183272,0.230,-0.380
183273,0.245,-0.385
183274,0.235,-0.380
183275,0.220,-0.395
183276,0.230,-0.375
183277,0.220,-0.355
183278,0.210,-0.370
183279,0.215,-0.350
183280,0.195,-0.285
183281,0.220,-0.265
183282,0.225,-0.250
183283,0.235,-0.225
183284,0.305,-0.200
183285,0.305,-0.190
183286,0.335,-0.160
183287,0.390,-0.165
183288,0.385,-0.140
183289,0.380,-0.150
183290,0.375,-0.230
183291,0.355,-0.230
183292,0.320,-0.230
183293,0.290,-0.220
183294,0.260,-0.260
183295,0.245,-0.275
183296,0.245,-0.270
183297,0.215,-0.285
183298,0.200,-0.340
183299,0.180,-0.375
183300,0.195,-0.400
183301,0.200,-0.395
183302,0.205,-0.425
183303,0.205,-0.435
183304,0.195,-0.430
183305,0.190,-0.405
183306,0.190,-0.425
183307,0.175,-0.430
183308,0.185,-0.420
183309,0.170,-0.425
183310,0.175,-0.405
183311,0.190,-0.430
183312,0.165,-0.425
183313,0.170,-0.425
183314,0.165,-0.410
183315,0.175,-0.415
183316,0.180,-0.395
183317,0.180,-0.390
183318,0.175,-0.390
183319,0.185,-0.420
183320,0.175,-0.395
183321,0.185,-0.405
183322,0.175,-0.390
183323,0.180,-0.355
183324,0.170,-0.350
183325,0.210,-0.265
183326,0.195,-0.120
183327,0.210,0.030
183328,0.250,0.255
183329,0.350,0.620
183330,0.380,0.880
183331,0.190,1.035
183332,-0.120,1.180
183333,-0.630,1.360
183334,-1.405,1.580
183335,-2.070,1.690
183336,-2.500,1.645
183337,-2.680,1.590
183338,-2.675,1.475
183339,-2.585,1.300
183340,-2.400,1.130
183341,-2.270,0.955
183342,-2.175,0.790
183343,-2.020,0.705
183344,-1.855,0.755
183345,-1.720,0.925
183346,-1.610,1.145
183347,-1.465,1.265
183348,-1.315,1.030
183349,-1.170,0.545
183350,-1.060,-0.025
183351,-0.930,-0.445
183352,-0.810,-0.655
183353,-0.660,-0.710
183354,-0.515,-0.670
183355,-0.355,-0.620
183356,-0.160,-0.590
183357,0.025,-0.550
183358,0.175,-0.520
183359,0.360,-0.465
183360,0.495,-0.475
183361,0.590,-0.460
183362,0.645,-0.440
183363,0.670,-0.450
183364,0.700,-0.445
183365,0.745,-0.435
183366,0.765,-0.425
183367,0.785,-0.415
183368,0.780,-0.400
183369,0.795,-0.400
183370,0.795,-0.400
183371,0.800,-0.370
183372,0.825,-0.390
183373,0.850,-0.390
183374,0.860,-0.395
183375,0.860,-0.380
183376,0.865,-0.365
183377,0.870,-0.365
183378,0.865,-0.380
183379,0.895,-0.395
183380,0.925,-0.405
183381,0.945,-0.420
183382,0.965,-0.400
183383,1.005,-0.405
183384,1.010,-0.420
183385,1.025,-0.450
183386,1.055,-0.470
183387,1.095,-0.480
183388,1.105,-0.490
183389,1.130,-0.500
183390,1.170,-0.520
183391,1.175,-0.535
183392,1.200,-0.550
183393,1.220,-0.570
183394,1.230,-0.585
183395,1.245,-0.565
183396,1.245,-0.580
183397,1.270,-0.570
183398,1.265,-0.575
183399,1.240,-0.530
183400,1.210,-0.520
183401,1.190,-0.485
183402,1.190,-0.465
183403,1.150,-0.400
183404,1.095,-0.360
183405,1.055,-0.345
183406,0.990,-0.315
183407,0.965,-0.265
183408,0.900,-0.265
183409,0.835,-0.265
183410,0.795,-0.250
183411,0.730,-0.245
183412,0.690,-0.215
183413,0.620,-0.235
183414,0.580,-0.240
183415,0.510,-0.260
183416,0.480,-0.260
183417,0.435,-0.270
183418,0.410,-0.285
183419,0.365,-0.315
183420,0.360,-0.320
183421,0.330,-0.340
183422,0.285,-0.335
183423,0.305,-0.315
183424,0.295,-0.320
183425,0.275,-0.345
183426,0.265,-0.340
183427,0.260,-0.350
183428,0.245,-0.340
183429,0.235,-0.340
183430,0.245,-0.375
183431,0.235,-0.360
183432,0.245,-0.365
183433,0.250,-0.355
183434,0.245,-0.370
183435,0.255,-0.385
183436,0.235,-0.370
183437,0.255,-0.400
183438,0.265,-0.400
183439,0.245,-0.395
183440,0.245,-0.390
183441,0.235,-0.400
183442,0.235,-0.390
183443,0.235,-0.400
183444,0.280,-0.405
183445,0.255,-0.410
183446,0.270,-0.445
183447,0.260,-0.420
183448,0.265,-0.425
183449,0.265,-0.435
183450,0.225,-0.430
183451,0.230,-0.430
183452,0.250,-0.420
183453,0.250,-0.450
183454,0.235,-0.440
183455,0.245,-0.455
183456,0.245,-0.450
183457,0.240,-0.445
183458,0.220,-0.450
183459,0.225,-0.425
183460,0.215,-0.420
183461,0.200,-0.420
183462,0.225,-0.430
183463,0.210,-0.420
183464,0.210,-0.430
183465,0.225,-0.410
183466,0.205,-0.430
183467,0.195,-0.430
183468,0.205,-0.435
183469,0.200,-0.435
183470,0.190,-0.430
183471,0.195,-0.450
183472,0.175,-0.445
183473,0.200,-0.425
183474,0.195,-0.425
183475,0.200,-0.410
183476,0.180,-0.405
183477,0.175,-0.380
183478,0.190,-0.405
183479,0.175,-0.420
183480,0.160,-0.435
183481,0.165,-0.410
183482,0.195,-0.400
183483,0.185,-0.410
183484,0.165,-0.405
183485,0.160,-0.400
183486,0.150,-0.410
183487,0.150,-0.420
183488,0.140,-0.395
183489,0.140,-0.390
183490,0.160,-0.405
183491,0.155,-0.365
183492,0.135,-0.345
183493,0.115,-0.320
183494,0.150,-0.295
183495,0.160,-0.290
183496,0.200,-0.250
183497,0.240,-0.205
183498,0.215,-0.185
183499,0.275,-0.180
183500,0.305,-0.200
183501,0.320,-0.200
183502,0.315,-0.250
183503,0.315,-0.260
183504,0.290,-0.260
183505,0.240,-0.270
183506,0.225,-0.305
183507,0.190,-0.305
183508,0.185,-0.315
183509,0.160,-0.355
183510,0.140,-0.350
183511,0.120,-0.400
183512,0.100,-0.415
183513,0.090,-0.425
183514,0.120,-0.440
183515,0.125,-0.445
183516,0.115,-0.470
183517,0.105,-0.430
183518,0.110,-0.440
183519,0.100,-0.440
183520,0.075,-0.440
183521,0.090,-0.425
183522,0.120,-0.425
183523,0.105,-0.445
183524,0.100,-0.425
183525,0.090,-0.445
183526,0.115,-0.440
183527,0.110,-0.435
183528,0.110,-0.415
183529,0.105,-0.415
183530,0.110,-0.415
183531,0.105,-0.445
183532,0.100,-0.415
183533,0.115,-0.390
183534,0.095,-0.400
183535,0.090,-0.380
183536,0.095,-0.295
183537,0.090,-0.180
183538,0.110,0.030
183539,0.155,0.310
183540,0.265,0.745
183541,0.310,1.080
183542,0.095,1.360
183543,-0.240,1.580
183544,-0.800,1.765
183545,-1.570,2.020
183546,-2.225,2.170
183547,-2.650,2.135
183548,-2.855,2.030
183549,-2.830,1.880
183550,-2.670,1.665
183551,-2.430,1.450
183552,-2.250,1.275
183553,-2.110,1.125
183554,-1.980,1.075
183555,-1.825,1.170
183556,-1.705,1.420
183557,-1.605,1.745
183558,-1.455,1.810
183559,-1.310,1.495
183560,-1.195,0.950
183561,-1.080,0.375
183562,-0.950,-0.110
183563,-0.790,-0.450
183564,-0.635,-0.595
183565,-0.505,-0.610
183566,-0.330,-0.650
183567,-0.155,-0.640
183568,0.000,-0.620
183569,0.185,-0.610
183570,0.330,-0.600
183571,0.450,-0.590
183572,0.520,-0.595
183573,0.550,-0.590
183574,0.590,-0.590
183575,0.600,-0.585
183576,0.635,-0.520
183577,0.675,-0.535
183578,0.685,-0.535
183579,0.730,-0.535
183580,0.765,-0.510
183581,0.785,-0.515
183582,0.785,-0.520
183583,0.830,-0.495
183584,0.835,-0.490
183585,0.845,-0.460
183586,0.850,-0.455
183587,0.870,-0.455
183588,0.885,-0.460
183589,0.880,-0.465
183590,0.900,-0.475
183591,0.900,-0.460
183592,0.940,-0.465
183593,0.955,-0.475
183594,0.955,-0.510
183595,0.985,-0.505
183596,1.005,-0.520
183597,1.055,-0.515
183598,1.090,-0.530
183599,1.090,-0.555
183600,1.120,-0.570
183601,1.145,-0.585
183602,1.170,-0.600
183603,1.200,-0.605
183604,1.210,-0.605
183605,1.235,-0.610
183606,1.235,-0.605
183607,1.245,-0.625
183608,1.260,-0.605
183609,1.275,-0.570
183610,1.195,-0.555
183611,1.230,-0.535
183612,1.190,-0.490
183613,1.170,-0.430
183614,1.120,-0.390
183615,1.065,-0.385
183616,1.015,-0.350
183617,0.975,-0.300
183618,0.925,-0.270
183619,0.900,-0.260
183620,0.835,-0.255
183621,0.780,-0.255
183622,0.705,-0.235
183623,0.675,-0.235
183624,0.615,-0.265
183625,0.560,-0.270
183626,0.530,-0.265
183627,0.480,-0.300
183628,0.435,-0.310
183629,0.395,-0.310
183630,0.390,-0.305
183631,0.365,-0.295
183632,0.350,-0.290
183633,0.335,-0.320
183634,0.320,-0.320
183635,0.310,-0.340
183636,0.310,-0.345
183637,0.320,-0.340
183638,0.310,-0.345
183639,0.310,-0.365
183640,0.315,-0.360
183641,0.325,-0.350
183642,0.310,-0.350
183643,0.330,-0.350
183644,0.290,-0.370
183645,0.295,-0.355
183646,0.320,-0.360
183647,0.315,-0.380
183648,0.280,-0.425
183649,0.300,-0.385
183650,0.300,-0.395
183651,0.305,-0.405
183652,0.300,-0.420
183653,0.320,-0.405
183654,0.320,-0.430
183655,0.310,-0.440
183656,0.300,-0.445
183657,0.305,-0.435
183658,0.315,-0.435
183659,0.315,-0.425
183660,0.325,-0.430
183661,0.285,-0.430
183662,0.290,-0.425
183663,0.295,-0.440
183664,0.300,-0.455
183665,0.290,-0.445
183666,0.285,-0.445
183667,0.280,-0.440
183668,0.295,-0.445
183669,0.285,-0.455
183670,0.285,-0.450
183671,0.295,-0.440
183672,0.280,-0.460
183673,0.275,-0.430
183674,0.280,-0.435
183675,0.255,-0.440
183676,0.270,-0.455
183677,0.265,-0.430
183678,0.275,-0.420
183679,0.250,-0.445
183680,0.260,-0.435
183681,0.265,-0.445
183682,0.230,-0.425
183683,0.245,-0.420
183684,0.230,-0.445
183685,0.225,-0.425
183686,0.235,-0.415
183687,0.235,-0.430
183688,0.230,-0.435
183689,0.205,-0.420
183690,0.230,-0.410
183691,0.230,-0.410
183692,0.250,-0.425
183693,0.210,-0.410
183694,0.190,-0.425
183695,0.230,-0.420
183696,0.210,-0.405
183697,0.220,-0.410
183698,0.205,-0.405
183699,0.190,-0.420
183700,0.200,-0.440
183701,0.180,-0.385
183702,0.180,-0.335
183703,0.190,-0.320
183704,0.200,-0.305
183705,0.235,-0.290
183706,0.255,-0.275
183707,0.285,-0.220
183708,0.290,-0.210
183709,0.315,-0.195
183710,0.335,-0.190
183711,0.345,-0.205
183712,0.370,-0.235
183713,0.355,-0.255
183714,0.320,-0.250
183715,0.275,-0.270
183716,0.255,-0.285
183717,0.225,-0.320
183718,0.230,-0.320
183719,0.200,-0.345
183720,0.190,-0.375
183721,0.190,-0.405
183722,0.175,-0.435
183723,0.145,-0.450
183724,0.165,-0.455
183725,0.165,-0.460
183726,0.170,-0.455
183727,0.165,-0.475
183728,0.180,-0.480
183729,0.155,-0.455
183730,0.155,-0.465
183731,0.130,-0.470
183732,0.150,-0.475
183733,0.165,-0.470
183734,0.150,-0.455
183735,0.145,-0.470
183736,0.175,-0.440
183737,0.155,-0.450
183738,0.160,-0.450
183739,0.155,-0.475
183740,0.150,-0.470
183741,0.150,-0.455
183742,0.150,-0.440
183743,0.135,-0.435
183744,0.145,-0.440
183745,0.135,-0.415
183746,0.130,-0.350
183747,0.130,-0.240
183748,0.150,-0.070
183749,0.195,0.230
183750,0.295,0.640
183751,0.335,1.020
183752,0.155,1.265
183753,-0.230,1.465
183754,-0.810,1.680
183755,-1.570,1.905
183756,-2.190,2.005
183757,-2.620,1.985
183758,-2.765,1.920
183759,-2.720,1.810
183760,-2.610,1.590
183761,-2.395,1.395
183762,-2.235,1.240
183763,-2.120,1.115
183764,-1.915,1.065
183765,-1.750,1.205
183766,-1.645,1.500
183767,-1.515,1.770
183768,-1.385,1.690
183769,-1.235,1.230
183770,-1.115,0.565
183771,-0.980,-0.015
183772,-0.850,-0.405
183773,-0.690,-0.590
183774,-0.515,-0.625
183775,-0.365,-0.655
183776,-0.180,-0.665
183777,-0.010,-0.640
183778,0.180,-0.620
183779,0.350,-0.580
183780,0.495,-0.585
183781,0.580,-0.610
183782,0.635,-0.600
183783,0.685,-0.605
183784,0.710,-0.595
183785,0.715,-0.600
183786,0.735,-0.575
183787,0.745,-0.585
183788,0.765,-0.560
183789,0.795,-0.570
183790,0.810,-0.545
183791,0.795,-0.520
183792,0.805,-0.530
183793,0.830,-0.540
183794,0.845,-0.510
183795,0.840,-0.525
183796,0.855,-0.535
183797,0.875,-0.535
183798,0.885,-0.530
183799,0.900,-0.530
183800,0.910,-0.520
183801,0.950,-0.545
183802,0.980,-0.540
183803,0.970,-0.560
183804,0.985,-0.575
183805,1.010,-0.605
183806,1.035,-0.600
183807,1.070,-0.630
183808,1.080,-0.630
183809,1.125,-0.635
183810,1.130,-0.660
183811,1.145,-0.680
183812,1.170,-0.705
183813,1.185,-0.710
183814,1.220,-0.715
183815,1.200,-0.720
183816,1.225,-0.730
183817,1.220,-0.710
183818,1.220,-0.680
183819,1.210,-0.625
183820,1.180,-0.625
183821,1.185,-0.555
183822,1.150,-0.515
183823,1.115,-0.475
183824,1.070,-0.450
183825,1.015,-0.390
183826,0.980,-0.340
183827,0.910,-0.335
183828,0.860,-0.295
183829,0.795,-0.275
183830,0.740,-0.270
183831,0.665,-0.275
183832,0.620,-0.280
183833,0.580,-0.280
183834,0.540,-0.265
183835,0.490,-0.265
183836,0.455,-0.300
183837,0.415,-0.280
183838,0.365,-0.295
183839,0.340,-0.290
183840,0.320,-0.305
183841,0.310,-0.300
183842,0.305,-0.300
183843,0.280,-0.320
183844,0.275,-0.335
183845,0.275,-0.320
183846,0.280,-0.315
183847,0.260,-0.340
183848,0.250,-0.345
183849,0.260,-0.350
183850,0.235,-0.345
183851,0.250,-0.355
183852,0.270,-0.355
183853,0.260,-0.360
183854,0.270,-0.355
183855,0.270,-0.365
183856,0.255,-0.390
183857,0.255,-0.365
183858,0.265,-0.360
183859,0.260,-0.385
183860,0.245,-0.395
183861,0.270,-0.405
183862,0.280,-0.360
183863,0.280,-0.375
183864,0.265,-0.380
183865,0.275,-0.410
183866,0.275,-0.395
183867,0.270,-0.400
183868,0.265,-0.400
183869,0.285,-0.400
183870,0.285,-0.395
183871,0.295,-0.385
183872,0.275,-0.390
183873,0.275,-0.395
183874,0.285,-0.385
183875,0.295,-0.380
183876,0.295,-0.415
183877,0.270,-0.410
183878,0.280,-0.390
183879,0.270,-0.370
183880,0.260,-0.420
183881,0.275,-0.390
183882,0.250,-0.375
183883,0.265,-0.385
183884,0.285,-0.380
183885,0.250,-0.375
183886,0.280,-0.385
183887,0.275,-0.380
183888,0.240,-0.385
183889,0.260,-0.400
183890,0.240,-0.385
183891,0.240,-0.370
183892,0.235,-0.380
183893,0.245,-0.370
183894,0.225,-0.360
183895,0.220,-0.370
183896,0.195,-0.390
183897,0.220,-0.355
183898,0.230,-0.365
183899,0.215,-0.345
183900,0.225,-0.350
183901,0.230,-0.370
183902,0.225,-0.360
183903,0.225,-0.340
183904,0.225,-0.365
183905,0.215,-0.350
183906,0.205,-0.335
183907,0.225,-0.340
183908,0.200,-0.330
183909,0.225,-0.295
183910,0.205,-0.260
183911,0.225,-0.240
183912,0.220,-0.220
183913,0.250,-0.195
183914,0.280,-0.170
183915,0.315,-0.140
183916,0.350,-0.125
183917,0.360,-0.130
183918,0.380,-0.140
183919,0.385,-0.140
183920,0.375,-0.180
183921,0.340,-0.190
183922,0.320,-0.205
183923,0.280,-0.230
183924,0.255,-0.265
183925,0.235,-0.260
183926,0.240,-0.275
183927,0.210,-0.300
183928,0.165,-0.360
183929,0.165,-0.410
183930,0.175,-0.415
183931,0.155,-0.395
183932,0.160,-0.415
183933,0.145,-0.420
183934,0.145,-0.390
183935,0.140,-0.405
183936,0.150,-0.390
183937,0.115,-0.410
183938,0.115,-0.400
183939,0.125,-0.420
183940,0.135,-0.415
183941,0.130,-0.415
183942,0.105,-0.415
183943,0.120,-0.410
183944,0.120,-0.420
183945,0.135,-0.415
183946,0.125,-0.420
183947,0.115,-0.410
183948,0.130,-0.410
183949,0.150,-0.390
183950,0.130,-0.400
183951,0.120,-0.375
183952,0.130,-0.370
183953,0.140,-0.320
183954,0.160,-0.225
183955,0.165,-0.080
183956,0.190,0.175
183957,0.245,0.515
183958,0.305,0.845
183959,0.175,1.075
183960,-0.125,1.265
183961,-0.675,1.485
183962,-1.420,1.735
183963,-2.100,1.920
183964,-2.545,1.930
183965,-2.745,1.875
183966,-2.710,1.810
183967,-2.610,1.640
183968,-2.450,1.455
183969,-2.270,1.285
183970,-2.170,1.130
183971,-2.030,1.020
183972,-1.860,0.995
183973,-1.725,1.190
183974,-1.635,1.480
183975,-1.490,1.625
183976,-1.345,1.435
183977,-1.180,0.955
183978,-1.050,0.300
183979,-0.965,-0.205
183980,-0.825,-0.495
183981,-0.680,-0.615
183982,-0.520,-0.605
183983,-0.365,-0.600
183984,-0.175,-0.620
183985,0.025,-0.590
183986,0.195,-0.550
183987,0.390,-0.545
183988,0.505,-0.550
183989,0.575,-0.530
183990,0.630,-0.510
183991,0.665,-0.500
183992,0.675,-0.510
183993,0.715,-0.500
183994,0.730,-0.500
183995,0.730,-0.480
183996,0.775,-0.480
183997,0.780,-0.480
183998,0.760,-0.480
183999,0.790,-0.465
184000,0.785,-0.455
184001,0.810,-0.460
184002,0.820,-0.460
184003,0.830,-0.440
184004,0.850,-0.460
184005,0.865,-0.465
184006,0.885,-0.460
184007,0.905,-0.445
184008,0.920,-0.465
184009,0.960,-0.470
184010,0.980,-0.460
184011,0.995,-0.480
184012,1.025,-0.495
184013,1.060,-0.525
184014,1.085,-0.535
184015,1.095,-0.545
184016,1.135,-0.570
184017,1.145,-0.585
184018,1.185,-0.615
184019,1.185,-0.615
184020,1.195,-0.640
184021,1.230,-0.640
184022,1.250,-0.650
184023,1.240,-0.625
184024,1.235,-0.620
184025,1.240,-0.615
184026,1.240,-0.585
184027,1.220,-0.575
184028,1.210,-0.520
184029,1.190,-0.500
184030,1.145,-0.455
184031,1.110,-0.415
184032,1.055,-0.380
184033,0.995,-0.330
184034,0.950,-0.300
184035,0.910,-0.265
184036,0.845,-0.270
184037,0.790,-0.265
184038,0.750,-0.250
184039,0.665,-0.240
184040,0.635,-0.280
184041,0.570,-0.260
184042,0.540,-0.250
184043,0.490,-0.265
184044,0.440,-0.285
184045,0.390,-0.255
184046,0.405,-0.275
184047,0.355,-0.295
184048,0.335,-0.305
184049,0.325,-0.305
184050,0.330,-0.310
184051,0.315,-0.315
184052,0.315,-0.315
184053,0.300,-0.300
184054,0.305,-0.305
184055,0.285,-0.305
184056,0.280,-0.330
184057,0.280,-0.330
184058,0.285,-0.330
184059,0.285,-0.330
184060,0.305,-0.335
184061,0.310,-0.340
184062,0.300,-0.335
184063,0.305,-0.340
184064,0.310,-0.335
184065,0.290,-0.370
184066,0.290,-0.355
184067,0.320,-0.360
184068,0.305,-0.355
184069,0.285,-0.385
184070,0.315,-0.355
184071,0.315,-0.355
184072,0.320,-0.365
184073,0.315,-0.360
184074,0.320,-0.350
184075,0.335,-0.340
184076,0.320,-0.355
184077,0.325,-0.385
184078,0.325,-0.375
184079,0.330,-0.360
184080,0.330,-0.360
184081,0.315,-0.360
184082,0.330,-0.340
184083,0.315,-0.360
184084,0.300,-0.350
184085,0.305,-0.360
184086,0.315,-0.350
184087,0.325,-0.335
184088,0.315,-0.350
184089,0.290,-0.340
184090,0.295,-0.335
184091,0.280,-0.320
184092,0.305,-0.355
184093,0.290,-0.360
184094,0.295,-0.340
184095,0.290,-0.335
184096,0.290,-0.330
184097,0.270,-0.350
184098,0.275,-0.345
184099,0.285,-0.325
184100,0.280,-0.325
184101,0.265,-0.350
184102,0.255,-0.320
184103,0.275,-0.340
184104,0.270,-0.325
184105,0.270,-0.320
184106,0.270,-0.330
184107,0.240,-0.320
184108,0.265,-0.325
184109,0.230,-0.330
184110,0.240,-0.330
184111,0.220,-0.320
184112,0.255,-0.320
184113,0.240,-0.320
184114,0.225,-0.330
184115,0.225,-0.320
184116,0.235,-0.320
184117,0.225,-0.315
184118,0.240,-0.270
184119,0.230,-0.200
184120,0.230,-0.205
184121,0.250,-0.170
184122,0.280,-0.140
184123,0.325,-0.115
184124,0.350,-0.100
184125,0.370,-0.080
184126,0.380,-0.075
184127,0.420,-0.070
184128,0.440,-0.105
184129,0.415,-0.150
184130,0.390,-0.185
184131,0.330,-0.165
184132,0.300,-0.170
184133,0.280,-0.210
184134,0.290,-0.220
184135,0.240,-0.225
184136,0.225,-0.250
184137,0.200,-0.270
184138,0.200,-0.345
184139,0.200,-0.365
184140,0.200,-0.380
184141,0.210,-0.355
184142,0.190,-0.365
184143,0.190,-0.370
184144,0.180,-0.360
184145,0.160,-0.365
184146,0.180,-0.355
184147,0.200,-0.355
184148,0.195,-0.355
184149,0.190,-0.355
184150,0.155,-0.355
184151,0.205,-0.360
184152,0.175,-0.360
184153,0.175,-0.370
184154,0.195,-0.370
184155,0.200,-0.375
184156,0.190,-0.380
184157,0.180,-0.370
184158,0.175,-0.370
184159,0.175,-0.360
184160,0.180,-0.335
184161,0.170,-0.340
184162,0.200,-0.330
184163,0.185,-0.240
184164,0.195,-0.100
184165,0.190,0.065
184166,0.225,0.325
184167,0.315,0.680
184168,0.350,0.970
184169,0.180,1.180
184170,-0.175,1.360
184171,-0.780,1.575
184172,-1.545,1.805
184173,-2.220,1.880
184174,-2.655,1.835
184175,-2.780,1.750
184176,-2.780,1.610
184177,-2.650,1.420
184178,-2.490,1.220
184179,-2.350,1.065
184180,-2.245,0.890
184181,-2.095,0.820
184182,-1.950,0.900
184183,-1.835,1.130
184184,-1.710,1.400
184185,-1.580,1.450
184186,-1.405,1.130
184187,-1.280,0.600
184188,-1.155,0.045
184189,-0.975,-0.345
184190,-0.850,-0.555
184191,-0.665,-0.610
184192,-0.515,-0.655
184193,-0.335,-0.625
184194,-0.150,-0.590
184195,0.045,-0.560
184196,0.225,-0.525
184197,0.410,-0.515
184198,0.500,-0.520
184199,0.575,-0.525
184200,0.615,-0.500
184201,0.660,-0.485
184202,0.690,-0.490
184203,0.695,-0.480
184204,0.730,-0.425
184205,0.740,-0.430
184206,0.750,-0.430
184207,0.770,-0.435
184208,0.750,-0.440
184209,0.770,-0.430
184210,0.775,-0.405
184211,0.780,-0.420
184212,0.785,-0.380
184213,0.810,-0.365
184214,0.810,-0.360
184215,0.840,-0.365
184216,0.845,-0.385
184217,0.860,-0.375
184218,0.870,-0.365
184219,0.905,-0.390
184220,0.930,-0.385
184221,0.940,-0.385
184222,0.950,-0.410
184223,0.980,-0.420
184224,0.990,-0.450
184225,1.030,-0.470
184226,1.040,-0.455
184227,1.100,-0.480
184228,1.120,-0.505
184229,1.120,-0.520
184230,1.155,-0.500
184231,1.175,-0.545
184232,1.205,-0.570
184233,1.230,-0.555
184234,1.225,-0.540
184235,1.230,-0.540
184236,1.235,-0.515
184237,1.220,-0.520
184238,1.175,-0.500
184239,1.180,-0.485
184240,1.145,-0.450
184241,1.115,-0.415
184242,1.090,-0.400
184243,1.045,-0.355
184244,0.980,-0.335
184245,0.920,-0.300
184246,0.885,-0.275
184247,0.830,-0.265
184248,0.790,-0.240
184249,0.720,-0.250
184250,0.675,-0.230
184251,0.620,-0.230
184252,0.575,-0.265
184253,0.525,-0.260
184254,0.465,-0.280
184255,0.420,-0.285
184256,0.390,-0.290
184257,0.360,-0.315
184258,0.315,-0.320
184259,0.310,-0.320
184260,0.285,-0.305
184261,0.275,-0.320
184262,0.280,-0.345
184263,0.245,-0.350
184264,0.220,-0.355
184265,0.240,-0.345
184266,0.215,-0.345
184267,0.195,-0.355
184268,0.230,-0.365
184269,0.235,-0.380
184270,0.230,-0.370
184271,0.210,-0.360
184272,0.225,-0.385
184273,0.220,-0.390
184274,0.225,-0.370
184275,0.205,-0.400
184276,0.220,-0.400
184277,0.220,-0.400
184278,0.235,-0.400
184279,0.220,-0.370
184280,0.220,-0.395
184281,0.220,-0.415
184282,0.225,-0.420
184283,0.225,-0.410
184284,0.225,-0.430
184285,0.255,-0.405
184286,0.245,-0.420
184287,0.235,-0.415
184288,0.230,-0.435
184289,0.230,-0.450
184290,0.230,-0.420
184291,0.220,-0.405
184292,0.220,-0.450
184293,0.210,-0.450
184294,0.220,-0.445
184295,0.240,-0.440
184296,0.205,-0.425
184297,0.205,-0.410
184298,0.230,-0.400
184299,0.240,-0.415
184300,0.225,-0.405
184301,0.215,-0.435
184302,0.195,-0.435
184303,0.210,-0.420
184304,0.205,-0.420
184305,0.205,-0.410
184306,0.185,-0.390
184307,0.175,-0.405
184308,0.180,-0.430
184309,0.180,-0.400
184310,0.180,-0.400
184311,0.180,-0.405
184312,0.195,-0.385
184313,0.180,-0.410
184314,0.170,-0.410
184315,0.175,-0.405
184316,0.195,-0.405
184317,0.185,-0.390
184318,0.170,-0.390
184319,0.180,-0.380
184320,0.165,-0.385
184321,0.170,-0.365
184322,0.150,-0.390
184323,0.165,-0.365
184324,0.170,-0.355
184325,0.185,-0.350
184326,0.175,-0.350
184327,0.170,-0.385
184328,0.190,-0.360
184329,0.170,-0.360
184330,0.180,-0.360
184331,0.160,-0.320
184332,0.165,-0.295
184333,0.150,-0.280
184334,0.190,-0.260
184335,0.155,-0.230
184336,0.210,-0.205
184337,0.235,-0.190
184338,0.245,-0.150
184339,0.275,-0.145
184340,0.320,-0.140
184341,0.325,-0.140
184342,0.330,-0.165
184343,0.335,-0.200
184344,0.305,-0.240
184345,0.275,-0.210
184346,0.245,-0.235
184347,0.215,-0.270
184348,0.200,-0.250
184349,0.195,-0.280
184350,0.175,-0.325
184351,0.130,-0.335
184352,0.110,-0.335
184353,0.115,-0.390
184354,0.120,-0.395
184355,0.135,-0.405
184356,0.100,-0.410
184357,0.100,-0.430
184358,0.100,-0.445
184359,0.080,-0.405
184360,0.100,-0.385
184361,0.105,-0.405
184362,0.095,-0.430
184363,0.065,-0.410
184364,0.090,-0.410
184365,0.095,-0.430
184366,0.075,-0.405
184367,0.090,-0.405
184368,0.080,-0.390
184369,0.060,-0.395
184370,0.090,-0.430
184371,0.060,-0.410
184372,0.075,-0.395
184373,0.100,-0.360
184374,0.100,-0.380
184375,0.075,-0.370
184376,0.100,-0.360
184377,0.110,-0.315
184378,0.090,-0.240
184379,0.110,-0.130
184380,0.120,0.135
184381,0.155,0.580
184382,0.285,1.015
184383,0.220,1.335
184384,-0.045,1.585
184385,-0.480,1.845
184386,-1.170,2.110
184387,-1.890,2.305
184388,-2.445,2.365
184389,-2.780,2.280
184390,-2.820,2.170
184391,-2.740,1.970
184392,-2.570,1.730
184393,-2.325,1.580
184394,-2.185,1.415
184395,-2.055,1.275
184396,-1.890,1.255
184397,-1.730,1.390
184398,-1.630,1.660
184399,-1.525,1.910
184400,-1.375,1.915
184401,-1.235,1.530
184402,-1.115,0.930
184403,-1.010,0.340
184404,-0.860,-0.110
184405,-0.715,-0.405
184406,-0.560,-0.550
184407,-0.400,-0.600
184408,-0.210,-0.650
184409,-0.065,-0.620
184410,0.100,-0.625
184411,0.260,-0.570
184412,0.395,-0.590
184413,0.520,-0.600
184414,0.570,-0.605
184415,0.605,-0.570
184416,0.630,-0.575
184417,0.630,-0.590
184418,0.655,-0.570
184419,0.665,-0.570
184420,0.690,-0.555
184421,0.700,-0.535
184422,0.700,-0.560
184423,0.725,-0.530
184424,0.720,-0.525
184425,0.760,-0.525
184426,0.775,-0.500
184427,0.780,-0.515
184428,0.795,-0.520
184429,0.790,-0.490
184430,0.805,-0.480
184431,0.820,-0.485
184432,0.845,-0.500
184433,0.845,-0.520
184434,0.870,-0.520
184435,0.885,-0.520
184436,0.900,-0.565
184437,0.920,-0.560
184438,0.940,-0.565
184439,0.975,-0.610
184440,0.970,-0.610
184441,1.005,-0.625
184442,1.055,-0.640
184443,1.075,-0.645
184444,1.070,-0.655
184445,1.095,-0.655
184446,1.125,-0.640
184447,1.125,-0.655
184448,1.140,-0.665
184449,1.150,-0.655
184450,1.130,-0.630
184451,1.125,-0.600
184452,1.115,-0.570
184453,1.095,-0.540
184454,1.070,-0.500
184455,1.025,-0.460
184456,1.000,-0.415
184457,0.960,-0.415
184458,0.905,-0.365
184459,0.860,-0.320
184460,0.815,-0.310
184461,0.765,-0.310
184462,0.695,-0.295
184463,0.620,-0.280
184464,0.615,-0.285
184465,0.550,-0.280
184466,0.505,-0.280
184467,0.450,-0.275
184468,0.400,-0.290
184469,0.370,-0.300
184470,0.330,-0.290
184471,0.300,-0.330
184472,0.285,-0.340
184473,0.300,-0.360
184474,0.265,-0.330
184475,0.250,-0.340
184476,0.230,-0.345
184477,0.215,-0.355
184478,0.235,-0.350
184479,0.220,-0.345
184480,0.210,-0.335
184481,0.195,-0.365
184482,0.220,-0.360
184483,0.220,-0.355
184484,0.230,-0.355
184485,0.230,-0.380
184486,0.205,-0.385
184487,0.205,-0.385
184488,0.200,-0.380
184489,0.200,-0.385
184490,0.215,-0.390
184491,0.205,-0.420
184492,0.210,-0.405
184493,0.195,-0.405
184494,0.225,-0.410
184495,0.220,-0.415
184496,0.225,-0.410
184497,0.215,-0.450
184498,0.220,-0.445
184499,0.190,-0.435
184500,0.200,-0.430
184501,0.200,-0.425
184502,0.200,-0.450
184503,0.215,-0.435
184504,0.190,-0.440
184505,0.190,-0.430
184506,0.190,-0.435
184507,0.170,-0.445
184508,0.185,-0.445
184509,0.205,-0.465
184510,0.195,-0.450
184511,0.190,-0.450
184512,0.200,-0.460
184513,0.185,-0.445
184514,0.165,-0.435
184515,0.170,-0.430
184516,0.165,-0.425
184517,0.160,-0.450
184518,0.175,-0.445
184519,0.165,-0.425
184520,0.170,-0.425
184521,0.175,-0.440
184522,0.165,-0.425
184523,0.160,-0.425
184524,0.155,-0.415
184525,0.165,-0.425
184526,0.150,-0.415
184527,0.150,-0.400
184528,0.145,-0.425
184529,0.125,-0.410
184530,0.145,-0.405
184531,0.135,-0.415
184532,0.120,-0.405
184533,0.140,-0.405
184534,0.130,-0.385
184535,0.130,-0.395
184536,0.115,-0.400
184537,0.130,-0.395
184538,0.130,-0.390
184539,0.145,-0.375
184540,0.120,-0.390
184541,0.135,-0.385
184542,0.140,-0.370
184543,0.160,-0.360
184544,0.135,-0.315
184545,0.155,-0.280
184546,0.140,-0.270
184547,0.195,-0.250
184548,0.190,-0.230
184549,0.215,-0.185
184550,0.245,-0.140
184551,0.250,-0.145
184552,0.280,-0.140
184553,0.295,-0.165
184554,0.295,-0.205
184555,0.290,-0.205
184556,0.240,-0.230
184557,0.235,-0.235
184558,0.200,-0.255
184559,0.200,-0.260
184560,0.185,-0.275
184561,0.170,-0.295
184562,0.150,-0.320
184563,0.120,-0.365
184564,0.145,-0.405
184565,0.135,-0.425
184566,0.110,-0.425
184567,0.110,-0.380
184568,0.110,-0.405
184569,0.105,-0.415
184570,0.105,-0.405
184571,0.090,-0.395
184572,0.105,-0.405
184573,0.090,-0.395
184574,0.075,-0.395
184575,0.095,-0.385
184576,0.100,-0.400
184577,0.085,-0.395
184578,0.085,-0.400
184579,0.080,-0.385
184580,0.075,-0.385
184581,0.100,-0.390
184582,0.120,-0.365
184583,0.125,-0.385
184584,0.105,-0.375
184585,0.110,-0.360
184586,0.130,-0.350
184587,0.120,-0.315
184588,0.100,-0.275
184589,0.115,-0.150
184590,0.115,0.035
184591,0.175,0.310
184592,0.260,0.610
184593,0.300,0.940
184594,0.090,1.135
184595,-0.260,1.330
184596,-0.840,1.530
184597,-1.585,1.775
184598,-2.240,1.880
184599,-2.650,1.860
184600,-2.775,1.770
184601,-2.730,1.685
184602,-2.605,1.515
184603,-2.400,1.335
184604,-2.265,1.175
184605,-2.160,1.045
184606,-2.000,0.995
184607,-1.800,1.120
184608,-1.690,1.360
184609,-1.555,1.605
184610,-1.410,1.480
184611,-1.280,1.010
184612,-1.125,0.365
184613,-0.995,-0.135
184614,-0.880,-0.425
184615,-0.705,-0.555
184616,-0.565,-0.575
184617,-0.405,-0.580
184618,-0.235,-0.570
184619,-0.030,-0.545
184620,0.160,-0.520
184621,0.320,-0.515
184622,0.445,-0.510
184623,0.495,-0.510
184624,0.540,-0.485
184625,0.600,-0.505
184626,0.615,-0.480
184627,0.635,-0.470
184628,0.660,-0.465
184629,0.655,-0.470
184630,0.680,-0.445
184631,0.705,-0.435
184632,0.720,-0.435
184633,0.710,-0.425
184634,0.730,-0.430
184635,0.720,-0.415
184636,0.705,-0.435
184637,0.730,-0.415
184638,0.760,-0.415
184639,0.770,-0.430
184640,0.790,-0.425
184641,0.820,-0.430
184642,0.845,-0.450
184643,0.855,-0.435
184644,0.880,-0.465
184645,0.910,-0.465
184646,0.940,-0.485
184647,0.955,-0.490
184648,1.000,-0.515
184649,0.995,-0.545
184650,1.020,-0.550
184651,1.045,-0.565
184652,1.060,-0.600
184653,1.045,-0.615
184654,1.120,-0.620
184655,1.115,-0.610
184656,1.120,-0.620
184657,1.120,-0.605
184658,1.125,-0.605
184659,1.105,-0.570
184660,1.095,-0.550
184661,1.070,-0.505
184662,1.035,-0.480
184663,1.005,-0.445
184664,0.970,-0.425
184665,0.920,-0.405
184666,0.865,-0.345
184667,0.805,-0.300
184668,0.755,-0.305
184669,0.705,-0.265
184670,0.650,-0.250
184671,0.620,-0.240
184672,0.550,-0.240
184673,0.500,-0.255
184674,0.455,-0.255
184675,0.420,-0.255
184676,0.375,-0.265
184677,0.320,-0.270
184678,0.315,-0.260
184679,0.245,-0.275
184680,0.255,-0.270
184681,0.235,-0.300
184682,0.215,-0.275
184683,0.225,-0.280
184684,0.215,-0.310
184685,0.210,-0.285
184686,0.200,-0.290
184687,0.190,-0.315
184688,0.165,-0.325
184689,0.160,-0.305
184690,0.165,-0.310
184691,0.145,-0.325
184692,0.150,-0.355
184693,0.155,-0.345
184694,0.145,-0.360
184695,0.155,-0.360
184696,0.150,-0.355
184697,0.140,-0.360
184698,0.145,-0.370
184699,0.145,-0.370
184700,0.150,-0.365
184701,0.155,-0.380
184702,0.150,-0.365
184703,0.180,-0.370
184704,0.155,-0.380
184705,0.140,-0.370
184706,0.145,-0.355
184707,0.125,-0.390
184708,0.170,-0.390
184709,0.145,-0.375
184710,0.150,-0.395
184711,0.145,-0.375
184712,0.155,-0.385
184713,0.125,-0.380
184714,0.130,-0.365
184715,0.140,-0.380
184716,0.155,-0.375
184717,0.150,-0.385
184718,0.140,-0.375
184719,0.120,-0.370
184720,0.125,-0.360
184721,0.120,-0.365
184722,0.120,-0.375
184723,0.125,-0.390
184724,0.100,-0.375
184725,0.105,-0.385
184726,0.105,-0.370
184727,0.105,-0.365
184728,0.085,-0.360
184729,0.090,-0.355
184730,0.110,-0.375
184731,0.080,-0.365
184732,0.080,-0.360
184733,0.085,-0.345
184734,0.100,-0.355
184735,0.075,-0.360
184736,0.065,-0.355
184737,0.080,-0.360
184738,0.060,-0.335
184739,0.050,-0.350
184740,0.075,-0.340
184741,0.070,-0.340
184742,0.065,-0.365
184743,0.065,-0.345
184744,0.070,-0.335
184745,0.060,-0.335
184746,0.050,-0.335
184747,0.080,-0.320
184748,0.060,-0.295
184749,0.050,-0.250
184750,0.055,-0.245
184751,0.070,-0.230
184752,0.115,-0.180
184753,0.105,-0.160
184754,0.145,-0.145
184755,0.175,-0.145
184756,0.205,-0.120
184757,0.235,-0.125
184758,0.270,-0.160
184759,0.240,-0.190
184760,0.235,-0.200
184761,0.175,-0.205
184762,0.135,-0.215
184763,0.115,-0.240
184764,0.095,-0.265
184765,0.100,-0.265
184766,0.060,-0.300
184767,0.020,-0.355
184768,0.035,-0.395
184769,0.040,-0.400
184770,0.035,-0.395
184771,0.035,-0.385
184772,0.040,-0.400
184773,0.030,-0.400
184774,0.020,-0.390
184775,0.020,-0.390
184776,0.000,-0.375
184777,0.025,-0.415
184778,0.040,-0.420
184779,0.040,-0.410
184780,0.020,-0.385
184781,0.035,-0.415
184782,0.035,-0.385
184783,0.040,-0.370
184784,0.050,-0.360
184785,0.035,-0.355
184786,0.045,-0.380
184787,0.040,-0.375
184788,0.035,-0.375
184789,0.045,-0.375
184790,0.045,-0.345
184791,0.040,-0.335
184792,0.030,-0.265
184793,0.045,-0.150
184794,0.055,0.035
184795,0.100,0.290
184796,0.200,0.625
184797,0.195,0.870
184798,-0.010,1.010
184799,-0.400,1.185
184800,-1.065,1.415
184801,-1.830,1.640
184802,-2.460,1.700
184803,-2.820,1.645
184804,-2.920,1.575
184805,-2.840,1.455
184806,-2.705,1.280
184807,-2.530,1.125
184808,-2.420,0.945
184809,-2.295,0.795
184810,-2.080,0.810
184811,-1.965,0.940
184812,-1.835,1.200
184813,-1.690,1.295
184814,-1.530,1.085
184815,-1.345,0.595
184816,-1.240,-0.020
184817,-1.120,-0.440
184818,-0.955,-0.610
184819,-0.780,-0.635
184820,-0.635,-0.600
184821,-0.445,-0.570
184822,-0.235,-0.555
184823,-0.005,-0.500
184824,0.145,-0.490
184825,0.310,-0.480
184826,0.415,-0.455
184827,0.485,-0.455
184828,0.495,-0.445
184829,0.570,-0.430
184830,0.575,-0.410
184831,0.575,-0.390
184832,0.610,-0.430
184833,0.630,-0.405
184834,0.650,-0.370
184835,0.655,-0.375
184836,0.670,-0.365
184837,0.700,-0.375
184838,0.695,-0.365
184839,0.705,-0.360
184840,0.685,-0.360
184841,0.730,-0.375
184842,0.735,-0.345
184843,0.760,-0.350
184844,0.765,-0.375
184845,0.790,-0.360
184846,0.800,-0.385
184847,0.840,-0.385
184848,0.835,-0.385
184849,0.855,-0.400
184850,0.900,-0.415
184851,0.935,-0.420
184852,0.950,-0.450
184853,0.965,-0.470
184854,0.975,-0.475
184855,1.005,-0.460
184856,1.030,-0.500
184857,1.060,-0.510
184858,1.075,-0.525
184859,1.095,-0.525
184860,1.095,-0.550
184861,1.115,-0.560
184862,1.140,-0.545
184863,1.135,-0.540
184864,1.125,-0.495
184865,1.090,-0.480
184866,1.070,-0.475
184867,1.015,-0.440
184868,0.970,-0.405
184869,0.920,-0.360
184870,0.870,-0.315
184871,0.820,-0.285
184872,0.760,-0.280
184873,0.735,-0.255
184874,0.680,-0.225
184875,0.610,-0.225
184876,0.555,-0.205
184877,0.505,-0.205
184878,0.455,-0.225
184879,0.395,-0.230
184880,0.370,-0.240
184881,0.305,-0.260
184882,0.280,-0.250
184883,0.255,-0.240
184884,0.235,-0.260
184885,0.205,-0.270
184886,0.195,-0.270
184887,0.180,-0.295
184888,0.165,-0.290
184889,0.145,-0.285
184890,0.155,-0.300
184891,0.145,-0.275
184892,0.160,-0.310
184893,0.145,-0.315
184894,0.120,-0.310
184895,0.135,-0.330
184896,0.130,-0.340
184897,0.140,-0.330
184898,0.165,-0.320
184899,0.135,-0.320
184900,0.145,-0.330
184901,0.170,-0.320
184902,0.165,-0.330
184903,0.150,-0.355
184904,0.145,-0.360
184905,0.115,-0.355
184906,0.125,-0.355
184907,0.165,-0.360
184908,0.140,-0.370
184909,0.150,-0.365
184910,0.135,-0.340
184911,0.135,-0.350
184912,0.140,-0.355
184913,0.120,-0.350
184914,0.120,-0.350
184915,0.125,-0.330
184916,0.135,-0.345
184917,0.105,-0.345
184918,0.115,-0.345
184919,0.110,-0.365
184920,0.105,-0.350
184921,0.100,-0.355
184922,0.115,-0.350
184923,0.100,-0.360
184924,0.070,-0.370
184925,0.105,-0.355
184926,0.085,-0.345
184927,0.105,-0.345
184928,0.075,-0.355
184929,0.070,-0.345
184930,0.070,-0.355
184931,0.060,-0.350
184932,0.040,-0.350
184933,0.020,-0.345
184934,0.050,-0.340
184935,0.035,-0.345
184936,0.060,-0.355
184937,0.035,-0.355
184938,0.055,-0.345
184939,0.040,-0.330
184940,0.060,-0.340
184941,0.045,-0.350
184942,0.045,-0.320
184943,0.035,-0.335
184944,0.015,-0.340
184945,0.010,-0.365
184946,0.020,-0.325
184947,0.015,-0.335
184948,0.035,-0.350
184949,0.035,-0.360
184950,0.035,-0.345
184951,0.020,-0.350
184952,0.045,-0.340
184953,0.020,-0.350
184954,0.025,-0.320
184955,0.020,-0.330
184956,0.015,-0.345
184957,0.000,-0.330
184958,0.000,-0.345
184959,0.005,-0.315
184960,0.010,-0.280
184961,0.000,-0.230
184962,0.005,-0.215
184963,0.030,-0.210
184964,0.060,-0.180
184965,0.090,-0.160
184966,0.085,-0.125
184967,0.125,-0.130
184968,0.135,-0.155
184969,0.155,-0.165
184970,0.175,-0.190
184971,0.125,-0.210
184972,0.095,-0.235
184973,0.085,-0.240
184974,0.025,-0.265
184975,0.005,-0.275
184976,0.020,-0.290
184977,-0.030,-0.300
184978,-0.050,-0.315
184979,-0.055,-0.345
184980,-0.085,-0.385
184981,-0.070,-0.430
184982,-0.040,-0.410
184983,-0.070,-0.415
184984,-0.070,-0.405
184985,-0.075,-0.410
184986,-0.090,-0.405
184987,-0.090,-0.405
184988,-0.085,-0.400
184989,-0.080,-0.425
184990,-0.085,-0.400
184991,-0.095,-0.410
184992,-0.050,-0.400
184993,-0.070,-0.390
184994,-0.100,-0.405
184995,-0.095,-0.420
184996,-0.095,-0.430
184997,-0.075,-0.425
184998,-0.095,-0.420
184999,-0.075,-0.395
185000,-0.095,-0.395
185001,-0.100,-0.400
185002,-0.085,-0.380
185003,-0.105,-0.360
185004,-0.120,-0.320
185005,-0.085,-0.240
185006,-0.100,-0.080
185007,-0.080,0.155
185008,0.000,0.485
185009,0.100,0.820
185010,0.005,1.075
185011,-0.295,1.240
185012,-0.735,1.490
185013,-1.435,1.710
185014,-2.145,1.900
185015,-2.670,1.930
185016,-2.950,1.860
185017,-2.995,1.770
185018,-2.915,1.600
185019,-2.790,1.395
185020,-2.570,1.210
185021,-2.465,1.055
185022,-2.345,0.925
185023,-2.180,0.960
185024,-2.010,1.105
185025,-1.890,1.365
185026,-1.775,1.505
185027,-1.655,1.310
185028,-1.465,0.780
185029,-1.345,0.170
185030,-1.215,-0.275
185031,-1.070,-0.540
185032,-0.890,-0.655
185033,-0.750,-0.670
185034,-0.580,-0.665
185035,-0.400,-0.625
185036,-0.220,-0.595
185037,-0.060,-0.595
185038,0.095,-0.555
185039,0.200,-0.535
185040,0.260,-0.525
185041,0.335,-0.535
185042,0.360,-0.545
185043,0.360,-0.505
185044,0.405,-0.470
185045,0.420,-0.510
185046,0.430,-0.505
185047,0.420,-0.475
185048,0.455,-0.465
185049,0.455,-0.460
185050,0.455,-0.440
185051,0.455,-0.435
185052,0.485,-0.425
185053,0.465,-0.425
185054,0.480,-0.415
185055,0.510,-0.405
185056,0.535,-0.395
185057,0.535,-0.380
185058,0.555,-0.340
185059,0.595,-0.320
185060,0.625,-0.310
185061,0.640,-0.300
185062,0.675,-0.280
185063,0.730,-0.260
185064,0.745,-0.205
185065,0.775,-0.160
185066,0.795,-0.175
185067,0.870,-0.215
185068,0.955,-0.220
185069,1.020,-0.240
185070,1.070,-0.265
185071,1.085,-0.350
185072,1.130,-0.430
185073,1.145,-0.490
185074,1.185,-0.545
185075,1.130,-0.550
185076,1.090,-0.585
185077,1.030,-0.600
185078,1.015,-0.600
185079,0.960,-0.590
185080,0.930,-0.605
185081,0.890,-0.585
185082,0.815,-0.560
185083,0.770,-0.535
185084,0.675,-0.500
185085,0.630,-0.485
185086,0.575,-0.445
185087,0.525,-0.440
185088,0.470,-0.395
185089,0.400,-0.380
185090,0.350,-0.375
185091,0.290,-0.370
185092,0.220,-0.375
185093,0.180,-0.350
185094,0.135,-0.370
185095,0.115,-0.385
185096,0.060,-0.380
185097,0.010,-0.370
185098,0.005,-0.390
185099,-0.025,-0.395
185100,-0.055,-0.385
185101,-0.070,-0.405
185102,-0.110,-0.430
185103,-0.080,-0.420
185104,-0.095,-0.390
185105,-0.115,-0.385
185106,-0.120,-0.425
185107,-0.115,-0.450
185108,-0.125,-0.440
185109,-0.135,-0.430
185110,-0.120,-0.430
185111,-0.115,-0.425
185112,-0.130,-0.445
185113,-0.125,-0.445
185114,-0.130,-0.435
185115,-0.130,-0.425
185116,-0.135,-0.425
185117,-0.130,-0.435
185118,-0.130,-0.455
185119,-0.155,-0.445
185120,-0.120,-0.415
185121,-0.150,-0.420
185122,-0.145,-0.430
185123,-0.140,-0.430
185124,-0.135,-0.430
185125,-0.135,-0.420
185126,-0.120,-0.405
185127,-0.120,-0.420
185128,-0.115,-0.420
185129,-0.135,-0.380
185130,-0.120,-0.350
185131,-0.115,-0.225
185132,-0.100,-0.035
185133,-0.085,0.165
185134,-0.030,0.400
185135,0.070,0.605
185136,0.085,0.705
185137,-0.120,0.830
185138,-0.605,0.995
185139,-1.280,1.155
185140,-1.875,1.270
185141,-2.365,1.295
185142,-2.775,1.150
185143,-2.890,1.015
185144,-2.800,0.890
185145,-2.625,0.810
185146,-2.480,0.765
185147,-2.395,0.590
185148,-2.250,0.510
185149,-2.085,0.605
185150,-1.990,0.895
185151,-1.890,1.180
185152,-1.755,1.255
185153,-1.650,0.990
185154,-1.505,0.475
185155,-1.405,-0.080
185156,-1.285,-0.475
185157,-1.165,-0.605
185158,-0.980,-0.635
185159,-0.820,-0.635
185160,-0.610,-0.640
185161,-0.395,-0.605
185162,-0.205,-0.600
185163,-0.045,-0.610
185164,0.075,-0.635
185165,0.155,-0.630
185166,0.180,-0.640
185167,0.235,-0.640
185168,0.280,-0.625
185169,0.295,-0.610
185170,0.305,-0.620
185171,0.340,-0.575
185172,0.365,-0.570
185173,0.375,-0.565
185174,0.355,-0.550
185175,0.365,-0.535
185176,0.390,-0.530
185177,0.405,-0.520
185178,0.395,-0.495
185179,0.420,-0.490
185180,0.425,-0.490
185181,0.420,-0.480
185182,0.440,-0.465
185183,0.450,-0.475
185184,0.485,-0.475
185185,0.485,-0.470
185186,0.510,-0.460
185187,0.520,-0.465
185188,0.545,-0.495
185189,0.550,-0.505
185190,0.585,-0.515
185191,0.630,-0.530
185192,0.615,-0.560
185193,0.625,-0.605
185194,0.650,-0.590
185195,0.675,-0.630
185196,0.690,-0.640
185197,0.705,-0.680
185198,0.710,-0.680
185199,0.710,-0.685
185200,0.710,-0.695
185201,0.700,-0.700
185202,0.695,-0.665
185203,0.685,-0.635
185204,0.655,-0.625
185205,0.645,-0.610
185206,0.620,-0.570
185207,0.570,-0.540
185208,0.535,-0.510
185209,0.515,-0.500
185210,0.470,-0.440
185211,0.400,-0.425
185212,0.360,-0.400
185213,0.315,-0.415
185214,0.245,-0.385
185215,0.220,-0.365
185216,0.160,-0.365
185217,0.140,-0.380
185218,0.075,-0.370
185219,0.055,-0.370
185220,0.000,-0.370
185221,-0.025,-0.390
185222,-0.080,-0.375
185223,-0.075,-0.385
185224,-0.100,-0.390
185225,-0.120,-0.390
185226,-0.115,-0.430
185227,-0.140,-0.385
185228,-0.135,-0.410
185229,-0.140,-0.415
185230,-0.175,-0.405
185231,-0.160,-0.400
185232,-0.165,-0.410
185233,-0.165,-0.410
185234,-0.180,-0.415
185235,-0.190,-0.400
185236,-0.195,-0.410
185237,-0.205,-0.415
185238,-0.200,-0.405
185239,-0.195,-0.415
185240,-0.190,-0.390
185241,-0.190,-0.415
185242,-0.190,-0.425
185243,-0.215,-0.430
185244,-0.190,-0.410
185245,-0.180,-0.415
185246,-0.210,-0.420
185247,-0.210,-0.415
185248,-0.210,-0.425
185249,-0.200,-0.420
185250,-0.175,-0.430
185251,-0.200,-0.440
185252,-0.205,-0.415
185253,-0.195,-0.425
185254,-0.215,-0.435
185255,-0.205,-0.430
185256,-0.225,-0.400
185257,-0.245,-0.400
185258,-0.215,-0.405
185259,-0.230,-0.390
185260,-0.230,-0.400
185261,-0.225,-0.400
185262,-0.220,-0.405
185263,-0.235,-0.410
185264,-0.225,-0.400
185265,-0.225,-0.410
185266,-0.220,-0.410
185267,-0.210,-0.410
185268,-0.200,-0.390
185269,-0.200,-0.380
185270,-0.210,-0.400
185271,-0.220,-0.400
185272,-0.215,-0.390
185273,-0.210,-0.400
185274,-0.220,-0.400
185275,-0.210,-0.390
185276,-0.190,-0.400
185277,-0.215,-0.410
185278,-0.230,-0.410
185279,-0.205,-0.375
185280,-0.215,-0.400
185281,-0.200,-0.390
185282,-0.180,-0.400
185283,-0.195,-0.405
185284,-0.215,-0.400
185285,-0.185,-0.415
185286,-0.180,-0.400
185287,-0.185,-0.410
185288,-0.195,-0.415
185289,-0.190,-0.410
185290,-0.185,-0.410
185291,-0.190,-0.420
185292,-0.185,-0.415
185293,-0.200,-0.405
185294,-0.180,-0.400
185295,-0.185,-0.390
185296,-0.200,-0.405
185297,-0.180,-0.390
185298,-0.165,-0.395
185299,-0.175,-0.405
185300,-0.190,-0.405
185301,-0.160,-0.375
185302,-0.190,-0.405
185303,-0.200,-0.400
185304,-0.200,-0.385
185305,-0.210,-0.370
185306,-0.190,-0.385
185307,-0.200,-0.385
185308,-0.215,-0.410
185309,-0.180,-0.395
185310,-0.165,-0.370
185311,-0.165,-0.400
185312,-0.180,-0.400
185313,-0.185,-0.395
185314,-0.190,-0.370
185315,-0.190,-0.380
185316,-0.185,-0.390
185317,-0.200,-0.375
185318,-0.190,-0.385
185319,-0.180,-0.370
185320,-0.180,-0.380
185321,-0.160,-0.370
185322,-0.185,-0.340
185323,-0.185,-0.365
185324,-0.205,-0.360
185325,-0.180,-0.360
185326,-0.190,-0.350
185327,-0.205,-0.365
185328,-0.175,-0.370
185329,-0.170,-0.365
185330,-0.185,-0.365
185331,-0.145,-0.345
185332,-0.170,-0.355
185333,-0.155,-0.345
185334,-0.155,-0.355
185335,-0.180,-0.330
185336,-0.160,-0.350
185337,-0.160,-0.330
185338,-0.160,-0.300
185339,-0.150,-0.270
185340,-0.150,-0.245
185341,-0.135,-0.245
185342,-0.130,-0.225
185343,-0.095,-0.200
185344,-0.085,-0.180
185345,-0.070,-0.160
185346,-0.055,-0.145
185347,-0.025,-0.145
185348,-0.010,-0.130
185349,0.000,-0.170
185350,0.000,-0.195
185351,-0.015,-0.185
185352,-0.055,-0.190
185353,-0.100,-0.230
185354,-0.100,-0.235
185355,-0.110,-0.270
185356,-0.120,-0.270
185357,-0.150,-0.315
185358,-0.185,-0.355
185359,-0.185,-0.380
185360,-0.165,-0.370
185361,-0.170,-0.405
185362,-0.185,-0.400
185363,-0.165,-0.395
185364,-0.190,-0.390
185365,-0.185,-0.390
185366,-0.190,-0.390
185367,-0.200,-0.375
185368,-0.205,-0.400
185369,-0.205,-0.410
185370,-0.185,-0.400
185371,-0.200,-0.390
185372,-0.190,-0.370
185373,-0.200,-0.395
185374,-0.200,-0.390
185375,-0.170,-0.385
185376,-0.175,-0.370
185377,-0.215,-0.380
185378,-0.185,-0.385
185379,-0.175,-0.375
185380,-0.220,-0.365
185381,-0.195,-0.365
185382,-0.185,-0.355
185383,-0.140,-0.295
185384,-0.180,-0.185
185385,-0.160,-0.045
185386,-0.130,0.205
185387,-0.065,0.605
185388,-0.005,0.985
185389,-0.105,1.205
185390,-0.400,1.360
185391,-0.855,1.505
185392,-1.505,1.710
185393,-2.175,1.875
185394,-2.660,1.880
185395,-2.925,1.820
185396,-2.990,1.770
185397,-2.900,1.610
185398,-2.725,1.405
185399,-2.510,1.290
185400,-2.400,1.155
185401,-2.260,1.025
185402,-2.075,1.070
185403,-1.910,1.270
185404,-1.835,1.590
185405,-1.715,1.790
185406,-1.555,1.630
185407,-1.400,1.095
185408,-1.280,0.435
185409,-1.185,-0.130
185410,-1.065,-0.480
185411,-0.915,-0.620
185412,-0.770,-0.620
185413,-0.610,-0.615
185414,-0.450,-0.580
185415,-0.255,-0.535
185416,-0.100,-0.515
185417,0.070,-0.515
185418,0.180,-0.520
185419,0.240,-0.495
185420,0.295,-0.500
185421,0.330,-0.490
185422,0.350,-0.490
185423,0.385,-0.495
185424,0.385,-0.490
185425,0.410,-0.475
185426,0.420,-0.460
185427,0.440,-0.460
185428,0.440,-0.440
185429,0.450,-0.440
185430,0.470,-0.445
185431,0.470,-0.435
185432,0.490,-0.410
185433,0.485,-0.425
185434,0.505,-0.415
185435,0.505,-0.405
185436,0.550,-0.415
185437,0.555,-0.410
185438,0.575,-0.400
185439,0.595,-0.415
185440,0.610,-0.415
185441,0.620,-0.430
185442,0.640,-0.445
185443,0.655,-0.460
185444,0.700,-0.465
185445,0.700,-0.495
185446,0.730,-0.510
185447,0.745,-0.545
185448,0.765,-0.560
185449,0.780,-0.570
185450,0.800,-0.575
185451,0.825,-0.595
185452,0.855,-0.625
185453,0.875,-0.605
185454,0.890,-0.640
185455,0.910,-0.660
185456,0.930,-0.645
185457,0.910,-0.620
185458,0.920,-0.605
185459,0.915,-0.605
185460,0.890,-0.585
185461,0.855,-0.530
185462,0.835,-0.490
185463,0.795,-0.480
185464,0.740,-0.445
185465,0.715,-0.400
185466,0.680,-0.370
185467,0.620,-0.330
185468,0.560,-0.305
185469,0.540,-0.270
185470,0.485,-0.260
185471,0.415,-0.255
185472,0.350,-0.240
185473,0.320,-0.225
185474,0.290,-0.225
185475,0.230,-0.210
185476,0.180,-0.235
185477,0.120,-0.220
185478,0.115,-0.235
185479,0.085,-0.255
185480,0.040,-0.275
185481,0.035,-0.260
185482,0.025,-0.245
185483,0.005,-0.260
185484,-0.005,-0.290
185485,-0.035,-0.290
185486,-0.015,-0.285
185487,-0.020,-0.295
185488,-0.040,-0.295
185489,-0.020,-0.300
185490,-0.055,-0.300
185491,-0.045,-0.330
185492,-0.045,-0.305
185493,-0.050,-0.325
185494,-0.045,-0.320
185495,-0.050,-0.335
185496,-0.065,-0.340
185497,-0.055,-0.355
185498,-0.020,-0.360
185499,-0.020,-0.370
185500,-0.045,-0.370
185501,-0.040,-0.375
185502,-0.040,-0.365
185503,-0.025,-0.380
185504,-0.025,-0.390
185505,-0.025,-0.380
185506,-0.020,-0.380
185507,-0.005,-0.385
185508,-0.040,-0.415
185509,-0.030,-0.405
185510,-0.045,-0.415
185511,-0.030,-0.405
185512,-0.025,-0.405
185513,-0.045,-0.405
185514,-0.030,-0.400
185515,-0.020,-0.415
185516,-0.030,-0.425
185517,-0.030,-0.420
185518,-0.030,-0.405
185519,-0.025,-0.420
185520,-0.035,-0.425
185521,-0.050,-0.405
185522,-0.025,-0.400
185523,-0.050,-0.400
185524,-0.055,-0.390
185525,-0.065,-0.420
185526,-0.055,-0.395
185527,-0.065,-0.400
185528,-0.060,-0.420
185529,-0.070,-0.400
185530,-0.080,-0.385
185531,-0.080,-0.375
185532,-0.080,-0.380
185533,-0.085,-0.390
185534,-0.105,-0.380
185535,-0.105,-0.360
185536,-0.075,-0.375
185537,-0.075,-0.400
185538,-0.080,-0.345
185539,-0.080,-0.370
185540,-0.080,-0.350
185541,-0.080,-0.370
185542,-0.100,-0.365
185543,-0.100,-0.365
185544,-0.105,-0.365
185545,-0.095,-0.365
185546,-0.110,-0.350
185547,-0.090,-0.345
185548,-0.120,-0.355
185549,-0.100,-0.345
185550,-0.140,-0.350
185551,-0.130,-0.335
185552,-0.135,-0.345
185553,-0.130,-0.350
185554,-0.140,-0.345
185555,-0.120,-0.345
185556,-0.140,-0.335
185557,-0.130,-0.335
185558,-0.130,-0.340
185559,-0.120,-0.320
185560,-0.120,-0.305
185561,-0.120,-0.330
185562,-0.115,-0.350
185563,-0.115,-0.305
185564,-0.115,-0.330
185565,-0.125,-0.320
185566,-0.140,-0.315
185567,-0.100,-0.315
185568,-0.100,-0.320
185569,-0.110,-0.320
185570,-0.105,-0.325
185571,-0.105,-0.305
185572,-0.105,-0.310
185573,-0.110,-0.335
185574,-0.105,-0.320
185575,-0.090,-0.310
185576,-0.080,-0.295
185577,-0.095,-0.315
185578,-0.120,-0.305
185579,-0.115,-0.275
185580,-0.095,-0.290
185581,-0.070,-0.295
185582,-0.080,-0.315
185583,-0.070,-0.290
185584,-0.070,-0.250
185585,-0.095,-0.220
185586,-0.080,-0.195
185587,-0.060,-0.165
185588,-0.030,-0.140
185589,0.000,-0.135
185590,0.010,-0.120
185591,0.050,-0.110
185592,0.070,-0.080
185593,0.090,-0.110
185594,0.090,-0.120
185595,0.070,-0.155
185596,0.050,-0.150
185597,0.000,-0.175
185598,-0.055,-0.185
185599,-0.070,-0.220
185600,-0.050,-0.205
185601,-0.060,-0.200
185602,-0.080,-0.260
185603,-0.105,-0.290
185604,-0.115,-0.320
185605,-0.090,-0.340
185606,-0.110,-0.365
185607,-0.115,-0.345
185608,-0.115,-0.350
185609,-0.130,-0.360
185610,-0.100,-0.350
185611,-0.120,-0.340
185612,-0.125,-0.345
185613,-0.140,-0.340
185614,-0.125,-0.360
185615,-0.125,-0.370
185616,-0.150,-0.360
185617,-0.120,-0.360
185618,-0.120,-0.355
185619,-0.120,-0.355
185620,-0.110,-0.345
185621,-0.125,-0.360
185622,-0.100,-0.365
185623,-0.140,-0.345
185624,-0.140,-0.330
185625,-0.130,-0.335
185626,-0.135,-0.335
185627,-0.155,-0.275
185628,-0.160,-0.205
185629,-0.135,-0.070
185630,-0.135,0.110
185631,-0.075,0.390
185632,0.030,0.730
185633,0.035,0.955
185634,-0.215,1.120
185635,-0.570,1.275
185636,-1.165,1.435
185637,-1.950,1.650
185638,-2.560,1.730
185639,-2.900,1.670
185640,-3.010,1.575
185641,-2.955,1.420
185642,-2.830,1.225
185643,-2.655,1.070
185644,-2.550,0.925
185645,-2.445,0.775
185646,-2.280,0.765
185647,-2.120,0.910
185648,-2.010,1.160
185649,-1.850,1.300
185650,-1.685,1.080
185651,-1.525,0.570
185652,-1.390,-0.025
185653,-1.260,-0.435
185654,-1.115,-0.635
185655,-0.955,-0.640
185656,-0.785,-0.570
185657,-0.610,-0.555
185658,-0.415,-0.520
185659,-0.230,-0.495
185660,-0.085,-0.450
185661,0.105,-0.440
185662,0.220,-0.440
185663,0.275,-0.420
185664,0.315,-0.400
185665,0.375,-0.415
185666,0.375,-0.390
185667,0.410,-0.395
185668,0.405,-0.390
185669,0.430,-0.375
185670,0.455,-0.380
185671,0.465,-0.365
185672,0.460,-0.340
185673,0.465,-0.355
185674,0.490,-0.355
185675,0.525,-0.340
185676,0.490,-0.335
185677,0.505,-0.340
185678,0.535,-0.340
185679,0.545,-0.355
185680,0.570,-0.340
185681,0.580,-0.320
185682,0.620,-0.345
185683,0.615,-0.355
185684,0.660,-0.365
185685,0.665,-0.360
185686,0.705,-0.390
185687,0.715,-0.390
185688,0.740,-0.415
185689,0.765,-0.415
185690,0.780,-0.440
185691,0.795,-0.455
185692,0.835,-0.465
185693,0.860,-0.480
185694,0.895,-0.495
185695,0.905,-0.500
185696,0.900,-0.485
185697,0.910,-0.520
185698,0.920,-0.530
185699,0.925,-0.515
185700,0.885,-0.490
185701,0.900,-0.460
185702,0.885,-0.450
185703,0.850,-0.400
185704,0.815,-0.385
185705,0.790,-0.340
185706,0.750,-0.310
185707,0.705,-0.255
185708,0.660,-0.240
185709,0.605,-0.250
185710,0.580,-0.215
185711,0.510,-0.185
185712,0.450,-0.195
185713,0.400,-0.175
185714,0.355,-0.190
185715,0.305,-0.205
185716,0.265,-0.225
185717,0.200,-0.235
185718,0.170,-0.230
185719,0.150,-0.230
185720,0.095,-0.225
185721,0.070,-0.255
185722,0.040,-0.270
185723,0.035,-0.270
185724,0.030,-0.270
185725,0.000,-0.270
185726,-0.010,-0.285
185727,-0.015,-0.285
185728,-0.015,-0.310
185729,0.000,-0.310
185730,-0.030,-0.295
185731,-0.040,-0.310
185732,-0.035,-0.330
185733,-0.030,-0.335
185734,-0.040,-0.320
185735,-0.020,-0.315
185736,-0.040,-0.340
185737,-0.055,-0.360
185738,-0.030,-0.350
185739,-0.035,-0.330
185740,-0.025,-0.355
185741,-0.040,-0.350
185742,-0.055,-0.360
185743,-0.030,-0.380
185744,-0.010,-0.380
185745,-0.030,-0.360
185746,-0.025,-0.365
185747,-0.025,-0.375
185748,-0.035,-0.400
185749,-0.040,-0.400
185750,-0.040,-0.380
185751,-0.025,-0.370
185752,-0.040,-0.370
185753,-0.020,-0.410
185754,-0.030,-0.385
185755,-0.035,-0.390
185756,-0.035,-0.370
185757,-0.035,-0.370
185758,-0.020,-0.350
185759,-0.055,-0.360
185760,-0.045,-0.385
185761,-0.050,-0.370
185762,-0.060,-0.375
185763,-0.070,-0.370
185764,-0.065,-0.360
185765,-0.070,-0.360
185766,-0.065,-0.355
185767,-0.060,-0.350
185768,-0.090,-0.350
185769,-0.080,-0.375
185770,-0.090,-0.365
185771,-0.100,-0.355
185772,-0.100,-0.365
185773,-0.115,-0.360
185774,-0.105,-0.330
185775,-0.115,-0.350
185776,-0.090,-0.365
185777,-0.120,-0.350
185778,-0.095,-0.350
185779,-0.120,-0.355
185780,-0.115,-0.370
185781,-0.115,-0.340
185782,-0.115,-0.330
185783,-0.125,-0.345
185784,-0.120,-0.340
185785,-0.145,-0.335
185786,-0.135,-0.330
185787,-0.135,-0.355
185788,-0.130,-0.360
185789,-0.140,-0.360
185790,-0.130,-0.330
185791,-0.145,-0.345
185792,-0.130,-0.345
185793,-0.135,-0.340
185794,-0.130,-0.335
185795,-0.135,-0.330
185796,-0.145,-0.345
185797,-0.135,-0.320
185798,-0.145,-0.335
185799,-0.155,-0.340
185800,-0.155,-0.355
185801,-0.150,-0.335
185802,-0.145,-0.320
185803,-0.135,-0.320
185804,-0.140,-0.315
185805,-0.155,-0.305
185806,-0.150,-0.315
185807,-0.150,-0.320
185808,-0.150,-0.325
185809,-0.150,-0.315
185810,-0.160,-0.315
185811,-0.185,-0.330
185812,-0.155,-0.295
185813,-0.150,-0.265
185814,-0.140,-0.225
185815,-0.130,-0.235
185816,-0.100,-0.190
185817,-0.075,-0.150
185818,-0.070,-0.145
185819,-0.025,-0.120
185820,-0.015,-0.135
185821,0.015,-0.135
185822,0.040,-0.160
185823,0.030,-0.180
185824,-0.020,-0.205
185825,-0.050,-0.195
185826,-0.080,-0.215
185827,-0.115,-0.250
185828,-0.095,-0.260
185829,-0.135,-0.300
185830,-0.145,-0.280
185831,-0.160,-0.315
185832,-0.180,-0.340
185833,-0.185,-0.355
185834,-0.185,-0.360
185835,-0.165,-0.385
185836,-0.145,-0.385
185837,-0.160,-0.355
185838,-0.160,-0.370
185839,-0.165,-0.360
185840,-0.185,-0.395
185841,-0.210,-0.365
185842,-0.170,-0.375
185843,-0.175,-0.365
185844,-0.180,-0.355
185845,-0.185,-0.375
185846,-0.175,-0.360
185847,-0.175,-0.350
185848,-0.170,-0.360
185849,-0.185,-0.360
185850,-0.170,-0.360
185851,-0.185,-0.360
185852,-0.165,-0.365
185853,-0.170,-0.355
185854,-0.190,-0.335
185855,-0.130,-0.300
185856,-0.150,-0.240
185857,-0.175,-0.095
185858,-0.155,0.080
185859,-0.120,0.415
185860,-0.025,0.820
185861,0.015,1.135
185862,-0.200,1.360
185863,-0.590,1.570
185864,-1.235,1.780
185865,-1.975,1.985
185866,-2.575,2.020
185867,-2.905,1.945
185868,-3.015,1.830
185869,-2.895,1.660
185870,-2.730,1.410
185871,-2.565,1.250
185872,-2.470,1.070
185873,-2.360,0.965
185874,-2.175,0.990
185875,-2.025,1.165
185876,-1.925,1.450
185877,-1.815,1.615
185878,-1.655,1.410
185879,-1.515,0.900
185880,-1.395,0.280
185881,-1.265,-0.200
185882,-1.115,-0.480
185883,-0.945,-0.590
185884,-0.780,-0.615
185885,-0.635,-0.600
185886,-0.420,-0.600
185887,-0.230,-0.550
185888,-0.080,-0.520
185889,0.045,-0.505
185890,0.150,-0.515
185891,0.215,-0.500
185892,0.245,-0.480
185893,0.285,-0.465
185894,0.310,-0.490
185895,0.340,-0.455
185896,0.345,-0.440
185897,0.345,-0.440
185898,0.365,-0.445
185899,0.390,-0.410
185900,0.400,-0.385
185901,0.385,-0.395
185902,0.405,-0.360
185903,0.410,-0.390
185904,0.440,-0.375
185905,0.425,-0.380
185906,0.430,-0.355
185907,0.445,-0.355
185908,0.455,-0.355
185909,0.485,-0.370
185910,0.490,-0.350
185911,0.535,-0.385
185912,0.540,-0.375
185913,0.570,-0.410
185914,0.585,-0.405
185915,0.640,-0.450
185916,0.645,-0.460
185917,0.660,-0.480
185918,0.680,-0.485
185919,0.735,-0.515
185920,0.750,-0.510
185921,0.750,-0.520
185922,0.785,-0.515
185923,0.800,-0.535
185924,0.805,-0.520
185925,0.815,-0.525
185926,0.830,-0.530
185927,0.790,-0.475
185928,0.770,-0.480
185929,0.765,-0.445
185930,0.720,-0.420
185931,0.690,-0.375
185932,0.690,-0.340
185933,0.630,-0.300
185934,0.615,-0.260
185935,0.555,-0.225
185936,0.500,-0.210
185937,0.460,-0.200
185938,0.385,-0.210
185939,0.320,-0.205
185940,0.295,-0.185
185941,0.220,-0.190
185942,0.195,-0.195
185943,0.150,-0.210
185944,0.090,-0.225
185945,0.065,-0.210
185946,0.030,-0.230
185947,0.005,-0.240
185948,-0.030,-0.240
185949,-0.060,-0.240
185950,-0.050,-0.270
185951,-0.080,-0.265
185952,-0.100,-0.275
185953,-0.105,-0.290
185954,-0.115,-0.295
185955,-0.105,-0.295
185956,-0.135,-0.300
185957,-0.105,-0.305
185958,-0.140,-0.315
185959,-0.130,-0.315
185960,-0.135,-0.320
185961,-0.135,-0.310
185962,-0.145,-0.320
185963,-0.140,-0.330
185964,-0.150,-0.350
185965,-0.130,-0.370
