'sample interval','ECG1','ECG2'
'0.004 sec','mV','mV'
5020000,0.260,-0.990
5020001,0.340,-0.970
5020002,0.360,-0.930
5020003,0.390,-0.900
5020004,0.435,-0.895
5020005,0.460,-0.875
5020006,0.490,-0.875
5020007,0.515,-0.895
5020008,0.550,-0.885
5020009,0.610,-0.865
5020010,0.590,-0.840
5020011,0.590,-0.805
5020012,0.630,-0.750
5020013,0.630,-0.750
5020014,0.625,-0.765
5020015,0.650,-0.740
5020016,0.700,-0.735
5020017,0.750,-0.730
5020018,0.760,-0.700
5020019,0.800,-0.710
5020020,0.835,-0.690
5020021,0.870,-0.695
5020022,0.900,-0.720
5020023,0.920,-0.720
5020024,0.960,-0.740
5020025,0.985,-0.735
5020026,0.990,-0.715
5020027,1.030,-0.700
5020028,1.050,-0.710
5020029,1.070,-0.680
5020030,1.050,-0.720
5020031,1.080,-0.720
5020032,1.075,-0.700
5020033,1.065,-0.670
5020034,1.040,-0.655
5020035,1.045,-0.620
5020036,1.020,-0.550
5020037,0.960,-0.520
5020038,0.935,-0.490
5020039,0.890,-0.485
5020040,0.855,-0.440
5020041,0.810,-0.395
5020042,0.760,-0.380
5020043,0.705,-0.375
5020044,0.675,-0.370
5020045,0.600,-0.360
5020046,0.560,-0.370
5020047,0.500,-0.415
5020048,0.430,-0.435
5020049,0.375,-0.440
5020050,0.335,-0.435
5020051,0.250,-0.470
5020052,0.225,-0.475
5020053,0.200,-0.460
5020054,0.175,-0.485
5020055,0.155,-0.505
5020056,0.120,-0.525
5020057,0.120,-0.490
5020058,0.090,-0.535
5020059,0.110,-0.580
5020060,0.130,-0.575
5020061,0.100,-0.595
5020062,0.090,-0.620
5020063,0.090,-0.615
5020064,0.080,-0.610
5020065,0.075,-0.605
5020066,0.050,-0.625
5020067,0.050,-0.640
5020068,0.095,-0.610
5020069,0.085,-0.615
5020070,0.060,-0.640
5020071,0.090,-0.640
5020072,0.100,-0.640
5020073,0.120,-0.630
5020074,0.130,-0.635
5020075,0.140,-0.640
5020076,0.130,-0.620
5020077,0.160,-0.620
5020078,0.135,-0.620
5020079,0.145,-0.620
5020080,0.150,-0.660
5020081,0.180,-0.640
5020082,0.140,-0.600
5020083,0.145,-0.570
5020084,0.090,-0.575
5020085,0.100,-0.580
5020086,0.095,-0.600
5020087,0.115,-0.580
5020088,0.085,-0.580
5020089,0.075,-0.550
5020090,0.045,-0.550
5020091,0.045,-0.520
5020092,0.070,-0.525
5020093,0.065,-0.540
5020094,0.050,-0.530
5020095,0.045,-0.505
5020096,0.035,-0.495
5020097,0.020,-0.520
5020098,0.065,-0.520
5020099,0.040,-0.525
5020100,0.075,-0.565
5020101,0.065,-0.570
5020102,0.065,-0.555
5020103,0.065,-0.575
5020104,0.055,-0.580
5020105,0.055,-0.580
5020106,0.080,-0.555
5020107,0.070,-0.575
5020108,0.070,-0.580
5020109,0.060,-0.610
5020110,0.075,-0.620
5020111,0.050,-0.590
5020112,0.080,-0.595
5020113,0.040,-0.590
5020114,0.060,-0.600
5020115,0.065,-0.580
5020116,0.075,-0.545
5020117,0.095,-0.535
5020118,0.080,-0.550
5020119,0.090,-0.480
5020120,0.110,-0.290
5020121,0.110,-0.050
5020122,0.170,0.285
5020123,0.245,0.600
5020124,0.195,0.815
5020125,-0.055,1.065
5020126,-0.550,1.320
5020127,-1.310,1.540
5020128,-1.945,1.640
5020129,-2.380,1.635
5020130,-2.640,1.565
5020131,-2.635,1.530
5020132,-2.530,1.430
5020133,-2.370,1.310
5020134,-2.215,1.115
5020135,-2.090,0.890
5020136,-1.915,0.725
5020137,-1.730,0.550
5020138,-1.590,0.360
5020139,-1.455,0.160
5020140,-1.300,-0.150
5020141,-1.145,-0.585
5020142,-1.050,-0.970
5020143,-0.975,-1.170
5020144,-0.840,-1.205
5020145,-0.700,-1.140
5020146,-0.575,-1.030
5020147,-0.480,-0.945
5020148,-0.315,-0.915
5020149,-0.110,-0.895
5020150,0.060,-0.895
5020151,0.240,-0.845
5020152,0.360,-0.860
5020153,0.430,-0.840
5020154,0.475,-0.810
5020155,0.510,-0.785
5020156,0.565,-0.750
5020157,0.580,-0.750
5020158,0.615,-0.755
5020159,0.650,-0.785
5020160,0.690,-0.755
5020161,0.690,-0.725
5020162,0.680,-0.685
5020163,0.685,-0.680
5020164,0.710,-0.690
5020165,0.730,-0.685
5020166,0.795,-0.685
5020167,0.780,-0.680
5020168,0.775,-0.660
5020169,0.760,-0.620
5020170,0.780,-0.575
5020171,0.835,-0.570
5020172,0.870,-0.590
5020173,0.930,-0.560
5020174,0.965,-0.540
5020175,0.990,-0.520
5020176,1.050,-0.500
5020177,1.055,-0.495
5020178,1.110,-0.530
5020179,1.150,-0.535
5020180,1.195,-0.535
5020181,1.220,-0.535
5020182,1.240,-0.505
5020183,1.260,-0.505
5020184,1.245,-0.525
5020185,1.265,-0.495
5020186,1.255,-0.445
5020187,1.215,-0.440
5020188,1.170,-0.425
5020189,1.145,-0.415
5020190,1.125,-0.375
5020191,1.060,-0.355
5020192,1.010,-0.345
5020193,0.950,-0.290
5020194,0.915,-0.305
5020195,0.845,-0.315
5020196,0.770,-0.340
5020197,0.715,-0.305
5020198,0.620,-0.335
5020199,0.560,-0.370
5020200,0.490,-0.375
5020201,0.450,-0.375
5020202,0.395,-0.395
5020203,0.340,-0.400
5020204,0.315,-0.425
5020205,0.250,-0.435
5020206,0.265,-0.470
5020207,0.225,-0.465
5020208,0.180,-0.460
5020209,0.150,-0.465
5020210,0.110,-0.450
5020211,0.100,-0.460
5020212,0.070,-0.495
5020213,0.085,-0.500
5020214,0.090,-0.480
5020215,0.100,-0.455
5020216,0.110,-0.470
5020217,0.135,-0.520
5020218,0.135,-0.510
5020219,0.140,-0.490
5020220,0.165,-0.535
5020221,0.150,-0.520
5020222,0.185,-0.500
5020223,0.200,-0.525
5020224,0.160,-0.520
5020225,0.180,-0.540
5020226,0.215,-0.570
5020227,0.220,-0.590
5020228,0.215,-0.595
5020229,0.230,-0.580
5020230,0.225,-0.590
5020231,0.215,-0.585
5020232,0.235,-0.595
5020233,0.235,-0.640
5020234,0.255,-0.610
5020235,0.260,-0.630
5020236,0.235,-0.620
5020237,0.220,-0.580
5020238,0.195,-0.590
5020239,0.165,-0.635
5020240,0.140,-0.660
5020241,0.170,-0.640
5020242,0.140,-0.575
5020243,0.100,-0.570
5020244,0.065,-0.560
5020245,0.090,-0.580
5020246,0.085,-0.560
5020247,0.080,-0.540
5020248,0.080,-0.545
5020249,0.085,-0.530
5020250,0.085,-0.515
5020251,0.090,-0.510
5020252,0.095,-0.500
5020253,0.110,-0.490
5020254,0.100,-0.495
5020255,0.115,-0.500
5020256,0.130,-0.505
5020257,0.150,-0.560
5020258,0.120,-0.580
5020259,0.120,-0.600
5020260,0.150,-0.580
5020261,0.120,-0.560
5020262,0.105,-0.585
5020263,0.150,-0.600
5020264,0.150,-0.550
5020265,0.070,-0.485
5020266,0.090,-0.390
5020267,0.100,-0.250
5020268,0.135,0.005
5020269,0.230,0.345
5020270,0.240,0.590
5020271,0.035,0.810
5020272,-0.340,1.020
5020273,-0.975,1.250
5020274,-1.680,1.355
5020275,-2.195,1.335
5020276,-2.510,1.300
5020277,-2.610,1.275
5020278,-2.555,1.210
5020279,-2.445,1.050
5020280,-2.280,0.915
5020281,-2.150,0.745
5020282,-2.050,0.580
5020283,-1.900,0.460
5020284,-1.730,0.330
5020285,-1.625,0.160
5020286,-1.475,0.015
5020287,-1.305,-0.215
5020288,-1.185,-0.620
5020289,-1.110,-0.955
5020290,-1.005,-1.100
5020291,-0.900,-1.085
5020292,-0.755,-1.040
5020293,-0.630,-0.970
5020294,-0.450,-0.870
5020295,-0.270,-0.840
5020296,-0.080,-0.800
5020297,0.080,-0.775
5020298,0.255,-0.785
5020299,0.355,-0.770
5020300,0.455,-0.810
5020301,0.535,-0.830
5020302,0.560,-0.805
5020303,0.570,-0.800
5020304,0.590,-0.850
5020305,0.605,-0.840
5020306,0.630,-0.830
5020307,0.670,-0.810
5020308,0.670,-0.790
5020309,0.685,-0.825
5020310,0.725,-0.805
5020311,0.750,-0.800
5020312,0.775,-0.785
5020313,0.790,-0.805
5020314,0.800,-0.810
5020315,0.835,-0.765
5020316,0.875,-0.760
5020317,0.880,-0.720
5020318,0.900,-0.700
5020319,0.935,-0.710
5020320,0.995,-0.725
5020321,1.035,-0.730
5020322,1.025,-0.685
5020323,1.040,-0.650
5020324,1.050,-0.625
5020325,1.100,-0.600
5020326,1.095,-0.580
5020327,1.115,-0.570
5020328,1.105,-0.545
5020329,1.140,-0.520
5020330,1.180,-0.490
5020331,1.160,-0.480
5020332,1.165,-0.485
5020333,1.155,-0.450
5020334,1.125,-0.430
5020335,1.100,-0.400
5020336,1.080,-0.400
5020337,1.080,-0.370
5020338,1.005,-0.345
5020339,0.960,-0.335
5020340,0.925,-0.300
5020341,0.850,-0.320
5020342,0.765,-0.340
5020343,0.740,-0.360
5020344,0.680,-0.375
5020345,0.620,-0.390
5020346,0.545,-0.425
5020347,0.525,-0.445
5020348,0.445,-0.465
5020349,0.415,-0.495
5020350,0.370,-0.500
5020351,0.335,-0.515
5020352,0.290,-0.550
5020353,0.260,-0.580
5020354,0.250,-0.605
5020355,0.245,-0.600
5020356,0.235,-0.575
5020357,0.195,-0.565
5020358,0.220,-0.540
5020359,0.205,-0.575
5020360,0.230,-0.595
5020361,0.230,-0.605
5020362,0.190,-0.595
5020363,0.185,-0.565
5020364,0.185,-0.530
5020365,0.160,-0.555
5020366,0.190,-0.570
5020367,0.200,-0.585
5020368,0.210,-0.590
5020369,0.205,-0.605
5020370,0.190,-0.605
5020371,0.140,-0.575
5020372,0.075,-0.585
5020373,0.065,-0.560
5020374,0.085,-0.570
5020375,0.070,-0.540
5020376,0.070,-0.555
5020377,0.085,-0.565
5020378,0.085,-0.575
5020379,0.125,-0.545
5020380,0.125,-0.560
5020381,0.115,-0.585
5020382,0.130,-0.585
5020383,0.165,-0.590
5020384,0.150,-0.580
5020385,0.175,-0.580
5020386,0.160,-0.620
5020387,0.165,-0.605
5020388,0.170,-0.605
5020389,0.145,-0.605
5020390,0.135,-0.620
5020391,0.160,-0.605
5020392,0.190,-0.610
5020393,0.195,-0.610
5020394,0.130,-0.590
5020395,0.135,-0.600
5020396,0.170,-0.575
5020397,0.155,-0.555
5020398,0.195,-0.585
5020399,0.175,-0.600
5020400,0.180,-0.590
5020401,0.180,-0.600
5020402,0.180,-0.610
5020403,0.155,-0.580
5020404,0.155,-0.540
5020405,0.150,-0.520
5020406,0.170,-0.540
5020407,0.210,-0.520
5020408,0.235,-0.540
5020409,0.205,-0.530
5020410,0.180,-0.515
5020411,0.185,-0.500
5020412,0.150,-0.510
5020413,0.140,-0.495
5020414,0.095,-0.470
5020415,0.085,-0.505
5020416,0.080,-0.505
5020417,0.095,-0.480
5020418,0.085,-0.500
5020419,0.095,-0.480
5020420,0.085,-0.530
5020421,0.110,-0.540
5020422,0.115,-0.535
5020423,0.115,-0.505
5020424,0.090,-0.535
5020425,0.080,-0.505
5020426,0.095,-0.480
5020427,0.100,-0.500
5020428,0.100,-0.505
5020429,0.100,-0.500
5020430,0.100,-0.495
5020431,0.105,-0.500
5020432,0.125,-0.490
5020433,0.105,-0.475
5020434,0.135,-0.465
5020435,0.130,-0.495
5020436,0.130,-0.465
5020437,0.170,-0.450
5020438,0.155,-0.425
5020439,0.185,-0.395
5020440,0.180,-0.415
5020441,0.170,-0.410
5020442,0.200,-0.365
5020443,0.225,-0.320
5020444,0.205,-0.315
5020445,0.205,-0.335
5020446,0.245,-0.365
5020447,0.260,-0.340
5020448,0.270,-0.350
5020449,0.280,-0.355
5020450,0.255,-0.335
5020451,0.270,-0.325
5020452,0.255,-0.350
5020453,0.205,-0.325
5020454,0.185,-0.315
5020455,0.140,-0.300
5020456,0.130,-0.270
5020457,0.110,-0.210
5020458,0.115,-0.090
5020459,0.115,0.065
5020460,0.125,0.280
5020461,0.195,0.580
5020462,0.225,0.810
5020463,0.020,1.010
5020464,-0.375,1.220
5020465,-0.970,1.415
5020466,-1.660,1.520
5020467,-2.165,1.555
5020468,-2.500,1.495
5020469,-2.650,1.445
5020470,-2.560,1.365
5020471,-2.430,1.245
5020472,-2.270,1.145
5020473,-2.155,0.985
5020474,-2.050,0.800
5020475,-1.855,0.660
5020476,-1.685,0.560
5020477,-1.570,0.460
5020478,-1.450,0.305
5020479,-1.280,0.100
5020480,-1.140,-0.235
5020481,-1.025,-0.625
5020482,-0.930,-0.850
5020483,-0.825,-0.890
5020484,-0.650,-0.840
5020485,-0.535,-0.760
5020486,-0.340,-0.680
5020487,-0.150,-0.635
5020488,0.015,-0.615
5020489,0.195,-0.575
5020490,0.365,-0.560
5020491,0.490,-0.550
5020492,0.585,-0.530
5020493,0.615,-0.525
5020494,0.655,-0.530
5020495,0.665,-0.555
5020496,0.675,-0.520
5020497,0.675,-0.510
5020498,0.660,-0.510
5020499,0.670,-0.520
5020500,0.705,-0.550
5020501,0.730,-0.540
5020502,0.720,-0.565
5020503,0.715,-0.565
5020504,0.720,-0.565
5020505,0.735,-0.530
5020506,0.740,-0.510
5020507,0.795,-0.530
5020508,0.775,-0.515
5020509,0.785,-0.490
5020510,0.820,-0.480
5020511,0.845,-0.500
5020512,0.905,-0.475
5020513,0.935,-0.455
5020514,0.945,-0.465
5020515,0.995,-0.465
5020516,1.010,-0.445
5020517,1.045,-0.425
5020518,1.080,-0.440
5020519,1.115,-0.420
5020520,1.150,-0.400
5020521,1.150,-0.370
5020522,1.165,-0.385
5020523,1.205,-0.385
5020524,1.245,-0.375
5020525,1.265,-0.315
5020526,1.255,-0.325
5020527,1.260,-0.290
5020528,1.245,-0.240
5020529,1.270,-0.195
5020530,1.250,-0.195
5020531,1.215,-0.185
5020532,1.185,-0.140
5020533,1.105,-0.090
5020534,1.055,-0.055
5020535,0.985,-0.050
5020536,0.935,-0.040
5020537,0.870,0.000
5020538,0.815,0.020
5020539,0.765,-0.020
5020540,0.700,-0.035
5020541,0.650,-0.070
5020542,0.595,-0.080
5020543,0.525,-0.115
5020544,0.455,-0.145
5020545,0.410,-0.190
5020546,0.360,-0.215
5020547,0.325,-0.240
5020548,0.310,-0.245
5020549,0.275,-0.270
5020550,0.230,-0.295
5020551,0.200,-0.305
5020552,0.190,-0.350
5020553,0.165,-0.370
5020554,0.175,-0.380
5020555,0.170,-0.390
5020556,0.175,-0.415
5020557,0.150,-0.415
5020558,0.145,-0.395
5020559,0.165,-0.365
5020560,0.180,-0.360
5020561,0.155,-0.355
5020562,0.185,-0.350
5020563,0.160,-0.375
5020564,0.195,-0.385
5020565,0.190,-0.390
5020566,0.190,-0.390
5020567,0.185,-0.340
5020568,0.185,-0.335
5020569,0.215,-0.330
5020570,0.225,-0.325
5020571,0.235,-0.345
5020572,0.270,-0.345
5020573,0.255,-0.340
5020574,0.265,-0.390
5020575,0.275,-0.355
5020576,0.295,-0.355
5020577,0.260,-0.375
5020578,0.240,-0.415
5020579,0.215,-0.430
5020580,0.215,-0.400
5020581,0.180,-0.405
5020582,0.155,-0.435
5020583,0.165,-0.465
5020584,0.180,-0.465
5020585,0.130,-0.460
5020586,0.150,-0.475
5020587,0.120,-0.470
5020588,0.115,-0.465
5020589,0.115,-0.470
5020590,0.115,-0.460
5020591,0.105,-0.460
5020592,0.100,-0.460
5020593,0.135,-0.455
5020594,0.135,-0.470
5020595,0.155,-0.425
5020596,0.150,-0.415
5020597,0.170,-0.390
5020598,0.165,-0.370
5020599,0.145,-0.355
5020600,0.145,-0.335
5020601,0.160,-0.325
5020602,0.155,-0.310
5020603,0.140,-0.300
5020604,0.145,-0.310
5020605,0.130,-0.285
5020606,0.145,-0.295
5020607,0.140,-0.245
5020608,0.155,-0.205
5020609,0.130,-0.170
5020610,0.145,-0.180
5020611,0.160,-0.165
5020612,0.195,-0.160
5020613,0.210,-0.160
5020614,0.205,-0.155
5020615,0.215,-0.130
5020616,0.205,-0.140
5020617,0.210,-0.115
5020618,0.205,-0.090
5020619,0.200,-0.075
5020620,0.215,-0.090
5020621,0.170,-0.110
5020622,0.180,-0.100
5020623,0.145,-0.095
5020624,0.140,-0.105
5020625,0.125,-0.120
5020626,0.100,-0.095
5020627,0.095,-0.040
5020628,0.100,0.025
5020629,0.085,0.155
5020630,0.095,0.355
5020631,0.160,0.675
5020632,0.175,0.930
5020633,-0.005,1.105
5020634,-0.375,1.345
5020635,-0.985,1.590
5020636,-1.635,1.780
5020637,-2.155,1.845
5020638,-2.505,1.825
5020639,-2.660,1.795
5020640,-2.600,1.735
5020641,-2.460,1.655
5020642,-2.310,1.575
5020643,-2.160,1.510
5020644,-2.070,1.360
5020645,-1.915,1.200
5020646,-1.710,1.055
5020647,-1.590,0.920
5020648,-1.490,0.795
5020649,-1.350,0.630
5020650,-1.245,0.335
5020651,-1.110,-0.085
5020652,-0.990,-0.340
5020653,-0.845,-0.470
5020654,-0.735,-0.495
5020655,-0.575,-0.380
5020656,-0.445,-0.175
5020657,-0.260,-0.015
5020658,-0.075,0.025
5020659,0.110,0.085
5020660,0.270,0.115
5020661,0.440,0.085
5020662,0.520,0.080
5020663,0.610,0.075
5020664,0.645,0.100
5020665,0.675,0.090
5020666,0.660,0.105
5020667,0.645,0.130
5020668,0.650,0.120
5020669,0.650,0.100
5020670,0.640,0.095
5020671,0.630,0.085
5020672,0.645,0.085
5020673,0.645,0.120
5020674,0.640,0.110
5020675,0.615,0.105
5020676,0.645,0.110
5020677,0.660,0.105
5020678,0.695,0.120
5020679,0.735,0.095
5020680,0.745,0.095
5020681,0.770,0.080
5020682,0.770,0.090
5020683,0.820,0.095
5020684,0.845,0.110
5020685,0.845,0.115
5020686,0.880,0.155
5020687,0.940,0.155
5020688,0.955,0.160
5020689,1.000,0.165
5020690,1.010,0.220
5020691,1.010,0.245
5020692,1.050,0.260
5020693,1.075,0.305
5020694,1.115,0.330
5020695,1.135,0.350
5020696,1.155,0.360
5020697,1.165,0.405
5020698,1.140,0.480
5020699,1.120,0.480
5020700,1.115,0.510
5020701,1.110,0.535
5020702,1.055,0.580
5020703,1.050,0.590
5020704,0.965,0.615
5020705,0.925,0.610
5020706,0.840,0.635
5020707,0.770,0.620
5020708,0.720,0.615
5020709,0.680,0.590
5020710,0.625,0.560
5020711,0.550,0.510
5020712,0.485,0.465
5020713,0.430,0.425
5020714,0.375,0.420
5020715,0.325,0.375
5020716,0.280,0.345
5020717,0.230,0.335
5020718,0.195,0.350
5020719,0.155,0.320
5020720,0.150,0.295
5020721,0.135,0.285
5020722,0.155,0.285
5020723,0.155,0.280
5020724,0.155,0.260
5020725,0.155,0.275
5020726,0.150,0.300
5020727,0.135,0.285
5020728,0.145,0.255
5020729,0.170,0.250
5020730,0.155,0.280
5020731,0.125,0.295
5020732,0.135,0.340
5020733,0.135,0.340
5020734,0.165,0.335
5020735,0.180,0.350
5020736,0.200,0.340
5020737,0.210,0.315
5020738,0.210,0.325
5020739,0.210,0.310
5020740,0.205,0.315
5020741,0.215,0.295
5020742,0.210,0.315
5020743,0.180,0.315
5020744,0.175,0.320
5020745,0.145,0.310
5020746,0.125,0.270
5020747,0.115,0.310
5020748,0.095,0.300
5020749,0.075,0.295
5020750,0.080,0.315
5020751,0.080,0.275
5020752,0.075,0.290
5020753,0.070,0.280
5020754,0.100,0.230
5020755,0.095,0.245
5020756,0.090,0.260
5020757,0.095,0.230
5020758,0.105,0.220
5020759,0.080,0.195
5020760,0.065,0.200
5020761,0.100,0.205
5020762,0.080,0.190
5020763,0.090,0.195
5020764,0.110,0.205
5020765,0.085,0.215
5020766,0.075,0.200
5020767,0.075,0.240
5020768,0.075,0.220
5020769,0.100,0.215
5020770,0.115,0.200
5020771,0.080,0.280
5020772,0.065,0.330
5020773,0.065,0.305
5020774,0.095,0.315
5020775,0.135,0.305
5020776,0.145,0.315
5020777,0.160,0.305
5020778,0.170,0.315
5020779,0.155,0.320
5020780,0.160,0.365
5020781,0.165,0.360
5020782,0.155,0.330
5020783,0.140,0.365
5020784,0.125,0.385
5020785,0.130,0.365
5020786,0.140,0.320
5020787,0.100,0.335
5020788,0.110,0.345
5020789,0.100,0.330
5020790,0.105,0.290
5020791,0.090,0.305
5020792,0.085,0.295
5020793,0.075,0.290
5020794,0.045,0.255
5020795,0.055,0.255
5020796,0.025,0.250
5020797,0.055,0.235
5020798,0.050,0.235
5020799,0.015,0.220
5020800,0.060,0.195
5020801,0.070,0.205
5020802,0.080,0.215
5020803,0.065,0.235
5020804,0.085,0.220
5020805,0.075,0.245
5020806,0.090,0.235
5020807,0.080,0.255
5020808,0.070,0.285
5020809,0.085,0.315
5020810,0.105,0.380
5020811,0.120,0.525
5020812,0.145,0.755
5020813,0.235,1.040
5020814,0.290,1.265
5020815,0.150,1.455
5020816,-0.175,1.745
5020817,-0.790,2.055
5020818,-1.455,2.240
5020819,-1.980,2.280
5020820,-2.325,2.265
5020821,-2.395,2.250
5020822,-2.325,2.195
5020823,-2.190,2.140
5020824,-2.035,2.060
5020825,-2.000,1.905
5020826,-1.865,1.735
5020827,-1.685,1.565
5020828,-1.585,1.405
5020829,-1.490,1.235
5020830,-1.355,1.015
5020831,-1.205,0.635
5020832,-1.090,0.170
5020833,-0.980,-0.195
5020834,-0.905,-0.325
5020835,-0.770,-0.385
5020836,-0.645,-0.335
5020837,-0.505,-0.245
5020838,-0.330,-0.205
5020839,-0.160,-0.185
5020840,0.010,-0.165
5020841,0.190,-0.135
5020842,0.315,-0.155
5020843,0.400,-0.175
5020844,0.425,-0.140
5020845,0.475,-0.110
5020846,0.495,-0.095
5020847,0.525,-0.095
5020848,0.545,-0.055
5020849,0.580,-0.055
5020850,0.610,-0.055
5020851,0.625,-0.035
5020852,0.615,0.030
5020853,0.650,0.080
5020854,0.675,0.085
5020855,0.715,0.095
5020856,0.750,0.120
5020857,0.805,0.130
5020858,0.795,0.140
5020859,0.855,0.165
5020860,0.875,0.180
5020861,0.905,0.220
5020862,0.940,0.220
5020863,0.975,0.215
5020864,1.030,0.225
5020865,1.065,0.225
5020866,1.085,0.195
5020867,1.100,0.205
5020868,1.095,0.200
5020869,1.090,0.200
5020870,1.120,0.185
5020871,1.105,0.155
5020872,1.105,0.145
5020873,1.095,0.130
5020874,1.090,0.135
5020875,1.070,0.135
5020876,1.045,0.145
5020877,1.060,0.150
5020878,1.015,0.165
5020879,1.000,0.150
5020880,1.000,0.185
5020881,0.945,0.195
5020882,0.895,0.255
5020883,0.860,0.240
5020884,0.810,0.275
5020885,0.775,0.315
5020886,0.730,0.350
5020887,0.680,0.345
5020888,0.590,0.350
5020889,0.560,0.365
5020890,0.520,0.365
5020891,0.465,0.365
5020892,0.415,0.380
5020893,0.385,0.390
5020894,0.315,0.385
5020895,0.330,0.390
5020896,0.320,0.350
5020897,0.310,0.345
5020898,0.290,0.350
5020899,0.280,0.335
5020900,0.290,0.305
5020901,0.265,0.305
5020902,0.260,0.320
5020903,0.240,0.300
5020904,0.245,0.290
5020905,0.245,0.270
5020906,0.260,0.295
5020907,0.235,0.260
5020908,0.205,0.245
5020909,0.200,0.245
5020910,0.155,0.255
5020911,0.130,0.250
5020912,0.130,0.200
5020913,0.135,0.225
5020914,0.120,0.200
5020915,0.120,0.185
5020916,0.125,0.140
5020917,0.105,0.125
5020918,0.095,0.100
5020919,0.095,0.075
5020920,0.085,0.040
5020921,0.080,0.035
5020922,0.090,0.055
5020923,0.085,0.030
5020924,0.060,0.000
5020925,0.065,0.020
5020926,0.095,0.055
5020927,0.080,0.040
5020928,0.090,0.065
5020929,0.090,0.060
5020930,0.125,0.065
5020931,0.105,0.070
5020932,0.110,0.095
5020933,0.110,0.125
5020934,0.100,0.180
5020935,0.105,0.225
5020936,0.140,0.285
5020937,0.175,0.395
5020938,0.220,0.555
5020939,0.315,0.790
5020940,0.365,1.035
5020941,0.255,1.280
5020942,-0.085,1.545
5020943,-0.665,1.865
5020944,-1.350,2.120
5020945,-1.905,2.205
5020946,-2.260,2.200
5020947,-2.395,2.170
5020948,-2.310,2.100
5020949,-2.155,2.005
5020950,-2.005,1.910
5020951,-1.900,1.715
5020952,-1.795,1.495
5020953,-1.640,1.315
5020954,-1.550,1.100
5020955,-1.460,0.875
5020956,-1.310,0.620
5020957,-1.220,0.225
5020958,-1.090,-0.145
5020959,-0.985,-0.400
5020960,-0.895,-0.455
5020961,-0.775,-0.415
5020962,-0.625,-0.315
5020963,-0.485,-0.225
5020964,-0.280,-0.235
5020965,-0.080,-0.150
5020966,0.125,-0.105
5020967,0.270,-0.125
5020968,0.380,-0.145
5020969,0.450,-0.180
5020970,0.490,-0.145
5020971,0.485,-0.110
5020972,0.540,-0.050
5020973,0.555,-0.050
5020974,0.605,-0.005
5020975,0.645,-0.010
5020976,0.685,-0.005
5020977,0.695,0.020
5020978,0.720,0.040
5020979,0.750,0.035
5020980,0.775,0.030
5020981,0.785,0.015
5020982,0.805,0.040
5020983,0.820,0.050
5020984,0.810,0.035
5020985,0.820,0.060
5020986,0.825,0.085
5020987,0.815,0.060
5020988,0.840,0.060
5020989,0.860,0.030
5020990,0.890,0.030
5020991,0.900,-0.005
5020992,0.945,-0.010
5020993,0.950,-0.015
5020994,0.945,-0.025
5020995,0.965,-0.045
5020996,0.985,-0.040
5020997,1.000,-0.040
5020998,1.025,-0.045
5020999,1.000,-0.060
5021000,1.005,-0.035
5021001,1.005,0.000
5021002,0.990,0.010
5021003,0.950,0.060
5021004,0.925,0.080
5021005,0.885,0.145
5021006,0.900,0.195
5021007,0.830,0.215
5021008,0.790,0.235
5021009,0.745,0.235
5021010,0.715,0.270
5021011,0.645,0.320
5021012,0.610,0.325
5021013,0.570,0.325
5021014,0.525,0.330
5021015,0.485,0.315
5021016,0.450,0.310
5021017,0.415,0.275
5021018,0.380,0.265
5021019,0.360,0.285
5021020,0.350,0.270
5021021,0.340,0.255
5021022,0.330,0.230
5021023,0.335,0.245
5021024,0.300,0.215
5021025,0.275,0.205
5021026,0.250,0.190
5021027,0.180,0.180
5021028,0.150,0.145
5021029,0.170,0.120
5021030,0.150,0.130
5021031,0.100,0.115
5021032,0.080,0.090
5021033,0.055,0.105
5021034,0.025,0.105
5021035,0.035,0.095
5021036,0.045,0.055
5021037,0.045,0.040
5021038,0.050,0.035
5021039,0.030,0.045
5021040,0.055,0.030
5021041,0.060,0.030
5021042,0.055,0.030
5021043,0.045,0.025
5021044,0.060,0.035
5021045,0.060,0.050
5021046,0.075,0.090
5021047,0.065,0.055
5021048,0.085,0.055
5021049,0.100,0.050
5021050,0.080,0.105
5021051,0.090,0.145
5021052,0.090,0.160
5021053,0.085,0.170
5021054,0.140,0.175
5021055,0.160,0.155
5021056,0.150,0.160
5021057,0.165,0.170
5021058,0.175,0.175
5021059,0.160,0.195
5021060,0.180,0.155
5021061,0.175,0.160
5021062,0.170,0.170
5021063,0.185,0.155
5021064,0.165,0.155
5021065,0.135,0.145
5021066,0.135,0.135
5021067,0.125,0.135
5021068,0.105,0.110
5021069,0.095,0.100
5021070,0.090,0.075
5021071,0.055,0.080
5021072,0.075,0.055
5021073,0.065,0.060
5021074,0.050,0.040
5021075,0.040,0.030
5021076,0.025,-0.010
5021077,0.000,-0.030
5021078,0.030,-0.040
5021079,0.020,-0.040
5021080,0.015,-0.040
5021081,0.010,-0.035
5021082,0.010,-0.035
5021083,0.020,-0.010
5021084,0.020,0.000
5021085,0.020,0.020
5021086,0.040,0.035
5021087,0.035,0.020
5021088,0.045,0.015
5021089,0.045,0.050
5021090,0.060,0.115
5021091,0.045,0.140
5021092,0.060,0.125
5021093,0.095,0.145
5021094,0.140,0.150
5021095,0.120,0.185
5021096,0.145,0.155
5021097,0.140,0.135
5021098,0.145,0.150
5021099,0.160,0.160
5021100,0.170,0.135
5021101,0.165,0.150
5021102,0.160,0.160
5021103,0.140,0.165
5021104,0.135,0.180
5021105,0.110,0.145
5021106,0.115,0.170
5021107,0.110,0.155
5021108,0.120,0.120
5021109,0.075,0.120
5021110,0.090,0.120
5021111,0.065,0.085
5021112,0.060,0.075
5021113,0.065,0.095
5021114,0.040,0.100
5021115,0.050,0.065
5021116,0.060,0.030
5021117,0.060,0.020
5021118,0.070,0.030
5021119,0.085,0.020
5021120,0.065,0.005
5021121,0.075,-0.015
5021122,0.050,-0.010
5021123,0.060,-0.010
5021124,0.050,-0.015
5021125,0.050,0.010
5021126,0.040,0.010
5021127,0.045,-0.005
5021128,0.050,0.010
5021129,0.065,0.040
5021130,0.080,0.125
5021131,0.065,0.215
5021132,0.095,0.345
5021133,0.185,0.515
5021134,0.265,0.775
5021135,0.285,0.975
5021136,0.125,1.115
5021137,-0.210,1.305
5021138,-0.810,1.585
5021139,-1.445,1.830
5021140,-1.980,1.990
5021141,-2.370,2.040
5021142,-2.505,2.015
5021143,-2.420,2.015
5021144,-2.265,1.940
5021145,-2.090,1.850
5021146,-1.975,1.705
5021147,-1.850,1.555
5021148,-1.680,1.390
5021149,-1.545,1.230
5021150,-1.465,1.080
5021151,-1.350,0.945
5021152,-1.230,0.705
5021153,-1.105,0.315
5021154,-0.985,-0.110
5021155,-0.880,-0.375
5021156,-0.790,-0.490
5021157,-0.675,-0.525
5021158,-0.530,-0.450
5021159,-0.380,-0.345
5021160,-0.215,-0.315
5021161,-0.065,-0.290
5021162,0.125,-0.270
5021163,0.295,-0.240
5021164,0.420,-0.250
5021165,0.485,-0.240
5021166,0.510,-0.230
5021167,0.580,-0.215
5021168,0.580,-0.220
5021169,0.600,-0.215
5021170,0.635,-0.185
5021171,0.655,-0.145
5021172,0.680,-0.125
5021173,0.720,-0.140
5021174,0.750,-0.135
5021175,0.770,-0.090
5021176,0.800,-0.080
5021177,0.800,-0.085
5021178,0.830,-0.070
5021179,0.865,-0.040
5021180,0.865,-0.020
5021181,0.905,-0.020
5021182,0.945,-0.020
5021183,0.970,-0.020
5021184,0.990,-0.030
5021185,0.985,-0.035
5021186,0.990,-0.030
5021187,1.025,-0.015
5021188,1.020,-0.040
5021189,1.020,-0.030
5021190,1.015,-0.030
5021191,1.050,-0.030
5021192,1.075,-0.050
5021193,1.090,-0.065
5021194,1.100,-0.060
5021195,1.110,-0.030
5021196,1.140,-0.030
5021197,1.165,-0.080
5021198,1.150,-0.060
5021199,1.180,0.000
5021200,1.150,-0.010
5021201,1.120,0.010
5021202,1.100,0.050
5021203,1.075,0.110
5021204,1.020,0.135
5021205,0.960,0.185
5021206,0.935,0.215
5021207,0.875,0.265
5021208,0.835,0.280
5021209,0.770,0.320
5021210,0.725,0.345
5021211,0.670,0.375
5021212,0.615,0.395
5021213,0.585,0.370
5021214,0.540,0.350
5021215,0.505,0.335
5021216,0.485,0.325
5021217,0.440,0.315
5021218,0.385,0.285
5021219,0.385,0.275
5021220,0.345,0.260
5021221,0.345,0.230
5021222,0.335,0.190
5021223,0.310,0.165
5021224,0.295,0.140
5021225,0.280,0.145
5021226,0.250,0.115
5021227,0.230,0.085
5021228,0.200,0.060
5021229,0.185,0.045
5021230,0.150,0.000
5021231,0.130,-0.025
5021232,0.100,-0.025
5021233,0.045,-0.040
5021234,0.035,-0.055
5021235,0.030,-0.055
5021236,0.030,-0.070
5021237,0.035,-0.095
5021238,0.055,-0.100
5021239,0.035,-0.095
5021240,0.070,-0.120
5021241,0.070,-0.100
5021242,0.060,-0.110
5021243,0.090,-0.055
5021244,0.095,-0.060
5021245,0.085,-0.060
5021246,0.105,-0.085
5021247,0.135,-0.060
5021248,0.150,-0.030
5021249,0.155,0.040
5021250,0.140,0.160
5021251,0.155,0.325
5021252,0.185,0.455
5021253,0.365,0.640
5021254,0.450,0.815
5021255,0.325,0.990
5021256,-0.005,1.210
5021257,-0.660,1.450
5021258,-1.340,1.635
5021259,-1.875,1.720
5021260,-2.295,1.720
5021261,-2.440,1.670
5021262,-2.390,1.590
5021263,-2.235,1.500
5021264,-2.110,1.410
5021265,-2.040,1.225
5021266,-1.920,0.995
5021267,-1.750,0.770
5021268,-1.625,0.495
5021269,-1.530,0.225
5021270,-1.405,-0.105
5021271,-1.280,-0.500
5021272,-1.220,-0.790
5021273,-1.130,-0.905
5021274,-1.025,-0.895
5021275,-0.925,-0.775
5021276,-0.800,-0.625
5021277,-0.605,-0.510
5021278,-0.385,-0.465
5021279,-0.150,-0.425
5021280,0.025,-0.395
5021281,0.205,-0.380
5021282,0.315,-0.385
5021283,0.375,-0.365
5021284,0.425,-0.355
5021285,0.450,-0.360
5021286,0.490,-0.370
5021287,0.505,-0.390
5021288,0.520,-0.335
5021289,0.555,-0.290
5021290,0.575,-0.255
5021291,0.610,-0.235
5021292,0.650,-0.215
5021293,0.690,-0.180
5021294,0.710,-0.160
5021295,0.750,-0.145
5021296,0.785,-0.130
5021297,0.825,-0.105
5021298,0.845,-0.090
5021299,0.885,-0.085
5021300,0.875,-0.110
5021301,0.880,-0.080
5021302,0.895,-0.080
5021303,0.910,-0.105
5021304,0.920,-0.105
5021305,0.925,-0.120
5021306,0.920,-0.125
5021307,0.930,-0.150
5021308,0.960,-0.175
5021309,0.975,-0.185
5021310,0.940,-0.185
5021311,0.965,-0.210
5021312,0.950,-0.220
5021313,0.965,-0.215
5021314,0.975,-0.225
5021315,0.955,-0.245
5021316,0.950,-0.200
5021317,0.940,-0.170
5021318,0.910,-0.165
5021319,0.875,-0.170
5021320,0.835,-0.140
5021321,0.820,-0.080
5021322,0.775,-0.045
5021323,0.710,-0.030
5021324,0.660,-0.010
5021325,0.645,-0.010
5021326,0.585,-0.025
5021327,0.550,-0.010
5021328,0.490,0.015
5021329,0.425,0.050
5021330,0.365,0.030
5021331,0.340,0.020
5021332,0.355,-0.010
5021333,0.335,-0.020
5021334,0.285,-0.035
5021335,0.280,-0.045
5021336,0.260,-0.065
5021337,0.255,-0.050
5021338,0.245,-0.035
5021339,0.230,-0.025
5021340,0.220,-0.045
5021341,0.240,-0.050
5021342,0.240,-0.040
5021343,0.195,-0.015
5021344,0.180,-0.045
5021345,0.170,-0.090
5021346,0.150,-0.095
5021347,0.150,-0.095
5021348,0.145,-0.095
5021349,0.135,-0.080
5021350,0.115,-0.060
5021351,0.080,-0.090
5021352,0.095,-0.120
5021353,0.075,-0.150
5021354,0.075,-0.210
5021355,0.085,-0.215
5021356,0.070,-0.195
5021357,0.080,-0.210
5021358,0.075,-0.210
5021359,0.060,-0.220
5021360,0.040,-0.250
5021361,0.025,-0.240
5021362,0.050,-0.180
5021363,0.035,-0.140
5021364,0.040,-0.175
5021365,0.015,-0.210
5021366,0.040,-0.215
5021367,0.035,-0.170
5021368,0.020,-0.130
5021369,0.010,-0.090
5021370,0.000,-0.010
5021371,0.035,0.095
5021372,0.070,0.260
5021373,0.120,0.495
5021374,0.180,0.790
5021375,0.120,0.995
5021376,-0.090,1.100
5021377,-0.500,1.270
5021378,-1.100,1.495
5021379,-1.665,1.660
5021380,-2.165,1.665
5021381,-2.480,1.630
5021382,-2.570,1.590
5021383,-2.440,1.560
5021384,-2.290,1.455
5021385,-2.105,1.330
5021386,-2.050,1.180
5021387,-1.940,0.990
5021388,-1.835,0.790
5021389,-1.705,0.580
5021390,-1.600,0.395
5021391,-1.510,0.245
5021392,-1.440,0.020
5021393,-1.325,-0.315
5021394,-1.225,-0.615
5021395,-1.150,-0.795
5021396,-1.055,-0.865
5021397,-0.940,-0.845
5021398,-0.825,-0.755
5021399,-0.665,-0.625
5021400,-0.520,-0.570
5021401,-0.370,-0.550
5021402,-0.160,-0.500
5021403,0.000,-0.475
5021404,0.130,-0.465
5021405,0.235,-0.475
5021406,0.290,-0.460
5021407,0.320,-0.400
5021408,0.325,-0.355
5021409,0.360,-0.335
5021410,0.385,-0.305
5021411,0.430,-0.295
5021412,0.450,-0.300
5021413,0.435,-0.290
5021414,0.485,-0.305
5021415,0.565,-0.245
5021416,0.575,-0.215
5021417,0.555,-0.205
5021418,0.590,-0.215
5021419,0.620,-0.230
5021420,0.645,-0.240
5021421,0.680,-0.270
5021422,0.710,-0.255
5021423,0.720,-0.255
5021424,0.760,-0.235
5021425,0.815,-0.215
5021426,0.840,-0.240
5021427,0.850,-0.260
5021428,0.880,-0.260
5021429,0.870,-0.240
5021430,0.890,-0.275
5021431,0.865,-0.275
5021432,0.915,-0.255
5021433,0.950,-0.250
5021434,0.925,-0.280
5021435,0.895,-0.275
5021436,0.890,-0.210
5021437,0.885,-0.200
5021438,0.880,-0.195
5021439,0.820,-0.175
5021440,0.870,-0.120
5021441,0.835,-0.065
5021442,0.800,-0.040
5021443,0.730,-0.010
5021444,0.670,0.025
5021445,0.640,0.055
5021446,0.585,0.060
5021447,0.530,0.065
5021448,0.500,0.090
5021449,0.405,0.090
5021450,0.340,0.055
5021451,0.335,0.035
5021452,0.330,0.045
5021453,0.300,0.065
5021454,0.260,0.035
5021455,0.210,0.000
5021456,0.210,-0.005
5021457,0.170,-0.040
5021458,0.125,-0.005
5021459,0.080,-0.045
5021460,0.040,-0.040
5021461,0.025,-0.085
5021462,0.040,-0.080
5021463,0.065,-0.100
5021464,0.040,-0.105
5021465,0.040,-0.100
5021466,0.050,-0.095
5021467,0.030,-0.100
5021468,0.015,-0.115
5021469,0.020,-0.100
5021470,0.035,-0.200
5021471,0.020,-0.240
5021472,0.035,-0.200
5021473,0.005,-0.225
5021474,-0.005,-0.250
5021475,-0.045,-0.275
5021476,-0.030,-0.265
5021477,-0.025,-0.255
5021478,-0.050,-0.225
5021479,-0.025,-0.245
5021480,-0.025,-0.255
5021481,-0.015,-0.270
5021482,-0.015,-0.260
5021483,0.005,-0.270
5021484,-0.025,-0.235
5021485,-0.005,-0.275
5021486,-0.005,-0.305
5021487,-0.005,-0.305
5021488,0.000,-0.250
5021489,-0.020,-0.225
5021490,-0.035,-0.215
5021491,0.015,-0.230
5021492,0.025,-0.220
5021493,0.040,-0.240
5021494,0.015,-0.220
5021495,0.005,-0.180
5021496,-0.015,-0.185
5021497,-0.030,-0.180
5021498,-0.045,-0.155
5021499,-0.030,-0.145
5021500,-0.045,-0.145
5021501,-0.060,-0.165
5021502,-0.045,-0.160
5021503,-0.040,-0.120
5021504,-0.040,-0.090
5021505,-0.055,-0.105
5021506,-0.025,-0.170
5021507,-0.010,-0.155
5021508,-0.025,-0.185
5021509,-0.050,-0.165
5021510,-0.065,-0.155
5021511,-0.070,-0.150
5021512,-0.040,-0.195
5021513,-0.040,-0.190
5021514,-0.075,-0.210
5021515,-0.090,-0.220
5021516,-0.095,-0.205
5021517,-0.100,-0.205
5021518,-0.100,-0.225
5021519,-0.100,-0.210
5021520,-0.100,-0.165
5021521,-0.080,-0.155
5021522,-0.085,-0.170
5021523,-0.055,-0.175
5021524,-0.035,-0.140
5021525,-0.055,-0.160
5021526,-0.065,-0.200
5021527,-0.065,-0.175
5021528,-0.065,-0.115
5021529,-0.055,-0.120
5021530,-0.030,-0.165
5021531,-0.010,-0.155
5021532,-0.025,-0.135
5021533,-0.015,-0.105
5021534,0.000,-0.090
5021535,0.010,-0.115
5021536,0.010,-0.135
5021537,0.005,-0.160
5021538,0.000,-0.160
5021539,-0.040,-0.130
5021540,-0.060,-0.120
5021541,-0.100,-0.130
5021542,-0.065,-0.125
5021543,-0.080,-0.120
5021544,-0.085,-0.100
5021545,-0.060,-0.095
5021546,-0.070,-0.100
5021547,-0.050,-0.110
5021548,-0.055,-0.080
5021549,-0.085,-0.070
5021550,-0.090,-0.110
5021551,-0.085,-0.180
5021552,-0.095,-0.135
5021553,-0.100,-0.155
5021554,-0.100,-0.130
5021555,-0.090,-0.130
5021556,-0.095,-0.175
5021557,-0.100,-0.200
5021558,-0.090,-0.205
5021559,-0.090,-0.220
5021560,-0.110,-0.235
5021561,-0.125,-0.230
5021562,-0.135,-0.185
5021563,-0.115,-0.250
5021564,-0.125,-0.245
5021565,-0.120,-0.220
5021566,-0.105,-0.200
5021567,-0.115,-0.215
5021568,-0.120,-0.205
5021569,-0.115,-0.175
5021570,-0.115,-0.165
5021571,-0.120,-0.110
5021572,-0.130,-0.105
5021573,-0.115,-0.080
5021574,-0.045,-0.090
5021575,-0.020,-0.070
5021576,-0.045,-0.040
5021577,-0.050,-0.050
5021578,-0.060,-0.080
5021579,-0.060,-0.020
5021580,-0.055,0.075
5021581,-0.045,0.175
5021582,-0.015,0.365
5021583,0.050,0.655
5021584,0.075,0.935
5021585,0.005,1.140
5021586,-0.200,1.295
5021587,-0.575,1.445
5021588,-1.115,1.600
5021589,-1.595,1.750
5021590,-2.060,1.785
5021591,-2.360,1.760
5021592,-2.390,1.720
5021593,-2.290,1.585
5021594,-2.130,1.465
5021595,-2.040,1.345
5021596,-2.015,1.175
5021597,-1.895,1.020
5021598,-1.740,0.930
5021599,-1.655,0.850
5021600,-1.530,0.730
5021601,-1.440,0.590
5021602,-1.340,0.320
5021603,-1.220,-0.050
5021604,-1.120,-0.385
5021605,-1.060,-0.580
5021606,-0.990,-0.665
5021607,-0.855,-0.640
5021608,-0.720,-0.605
5021609,-0.615,-0.560
5021610,-0.420,-0.520
5021611,-0.275,-0.480
5021612,-0.110,-0.440
5021613,0.050,-0.430
5021614,0.115,-0.420
5021615,0.205,-0.385
5021616,0.255,-0.330
5021617,0.300,-0.305
5021618,0.320,-0.350
5021619,0.385,-0.360
5021620,0.455,-0.360
5021621,0.465,-0.345
5021622,0.430,-0.320
5021623,0.440,-0.295
5021624,0.425,-0.260
5021625,0.440,-0.230
5021626,0.485,-0.235
5021627,0.530,-0.230
5021628,0.530,-0.255
5021629,0.540,-0.230
5021630,0.570,-0.230
5021631,0.585,-0.215
5021632,0.600,-0.220
5021633,0.660,-0.210
5021634,0.685,-0.170
5021635,0.670,-0.170
5021636,0.710,-0.195
5021637,0.750,-0.220
5021638,0.770,-0.235
5021639,0.780,-0.225
5021640,0.785,-0.205
5021641,0.785,-0.230
5021642,0.790,-0.235
5021643,0.815,-0.280
5021644,0.870,-0.280
5021645,0.875,-0.260
5021646,0.845,-0.220
5021647,0.830,-0.225
5021648,0.830,-0.205
5021649,0.845,-0.150
5021650,0.855,-0.145
5021651,0.865,-0.115
5021652,0.875,-0.125
5021653,0.875,-0.105
5021654,0.830,-0.025
5021655,0.805,0.045
5021656,0.785,0.090
5021657,0.755,0.145
5021658,0.725,0.170
5021659,0.725,0.215
5021660,0.695,0.230
5021661,0.625,0.235
5021662,0.590,0.220
5021663,0.550,0.245
5021664,0.490,0.235
5021665,0.455,0.240
5021666,0.405,0.240
5021667,0.360,0.215
5021668,0.325,0.195
5021669,0.265,0.155
5021670,0.220,0.105
5021671,0.200,0.125
5021672,0.150,0.120
5021673,0.135,0.070
5021674,0.100,0.010
5021675,0.060,0.050
5021676,0.055,0.020
5021677,0.035,-0.010
5021678,0.010,0.005
5021679,-0.015,0.005
5021680,-0.040,-0.005
5021681,-0.050,-0.040
5021682,-0.050,-0.045
5021683,-0.050,-0.070
5021684,-0.025,-0.090
5021685,-0.030,-0.080
5021686,-0.030,-0.090
5021687,-0.045,-0.090
5021688,-0.065,-0.105
5021689,-0.035,-0.100
5021690,-0.035,-0.065
5021691,-0.025,-0.065
5021692,-0.015,-0.070
5021693,-0.060,-0.115
5021694,-0.025,-0.140
5021695,-0.035,-0.125
5021696,-0.030,-0.060
5021697,-0.025,0.020
5021698,-0.010,0.035
5021699,0.015,-0.045
5021700,0.070,-0.070
5021701,0.065,-0.080
5021702,0.045,-0.100
5021703,0.030,-0.095
5021704,0.040,-0.055
5021705,0.055,-0.065
5021706,0.065,-0.060
5021707,0.055,-0.045
5021708,0.030,-0.025
5021709,0.045,0.005
5021710,0.065,-0.015
5021711,0.065,-0.025
5021712,0.080,-0.055
5021713,0.095,-0.060
5021714,0.060,-0.065
5021715,0.060,-0.100
5021716,0.045,-0.120
5021717,0.040,-0.100
5021718,-0.010,-0.080
5021719,-0.050,-0.120
5021720,-0.100,-0.220
5021721,-0.125,-0.195
5021722,-0.140,-0.180
5021723,-0.130,-0.200
5021724,-0.145,-0.240
5021725,-0.145,-0.200
5021726,-0.140,-0.175
5021727,-0.165,-0.215
5021728,-0.155,-0.260
5021729,-0.165,-0.190
5021730,-0.135,-0.195
5021731,-0.105,-0.200
5021732,-0.125,-0.225
5021733,-0.120,-0.195
5021734,-0.115,-0.175
5021735,-0.110,-0.170
5021736,-0.110,-0.145
5021737,-0.100,-0.100
5021738,-0.120,-0.055
5021739,-0.115,-0.070
5021740,-0.095,-0.090
5021741,-0.080,-0.075
5021742,-0.080,-0.075
5021743,-0.090,-0.105
5021744,-0.075,-0.085
5021745,-0.060,-0.085
5021746,-0.040,-0.055
5021747,-0.030,-0.030
5021748,-0.050,-0.010
5021749,-0.050,-0.020
5021750,-0.045,0.000
5021751,-0.045,0.015
5021752,-0.010,0.030
5021753,-0.010,-0.005
5021754,-0.010,-0.015
5021755,0.010,-0.010
5021756,0.015,-0.030
5021757,0.000,0.015
5021758,0.005,0.055
5021759,0.025,0.190
5021760,0.030,0.350
5021761,0.075,0.585
5021762,0.065,0.845
5021763,-0.080,1.030
5021764,-0.430,1.285
5021765,-0.965,1.530
5021766,-1.535,1.735
5021767,-2.010,1.865
5021768,-2.400,1.890
5021769,-2.570,1.855
5021770,-2.470,1.795
5021771,-2.315,1.675
5021772,-2.150,1.565
5021773,-2.085,1.470
5021774,-1.995,1.325
5021775,-1.855,1.230
5021776,-1.725,1.150
5021777,-1.625,1.055
5021778,-1.500,0.950
5021779,-1.405,0.750
5021780,-1.280,0.370
5021781,-1.170,-0.045
5021782,-1.060,-0.425
5021783,-0.950,-0.575
5021784,-0.820,-0.580
5021785,-0.690,-0.510
5021786,-0.560,-0.440
5021787,-0.390,-0.405
5021788,-0.250,-0.365
5021789,-0.055,-0.315
5021790,0.140,-0.310
5021791,0.240,-0.335
5021792,0.310,-0.305
5021793,0.370,-0.265
5021794,0.375,-0.280
5021795,0.440,-0.335
5021796,0.455,-0.335
5021797,0.490,-0.300
5021798,0.510,-0.300
5021799,0.505,-0.340
5021800,0.525,-0.385
5021801,0.555,-0.380
5021802,0.520,-0.370
5021803,0.510,-0.405
5021804,0.500,-0.410
5021805,0.480,-0.425
5021806,0.465,-0.445
5021807,0.475,-0.460
5021808,0.480,-0.440
5021809,0.490,-0.420
5021810,0.510,-0.475
5021811,0.515,-0.465
5021812,0.555,-0.415
5021813,0.580,-0.410
5021814,0.605,-0.415
5021815,0.615,-0.425
5021816,0.665,-0.425
5021817,0.685,-0.430
5021818,0.710,-0.430
5021819,0.735,-0.415
5021820,0.760,-0.345
5021821,0.780,-0.310
5021822,0.825,-0.320
5021823,0.850,-0.300
5021824,0.870,-0.295
5021825,0.850,-0.290
5021826,0.880,-0.310
5021827,0.865,-0.255
5021828,0.815,-0.160
5021829,0.810,-0.140
5021830,0.775,-0.125
5021831,0.775,-0.100
5021832,0.725,-0.060
5021833,0.665,-0.055
5021834,0.630,-0.040
5021835,0.600,0.010
5021836,0.545,0.045
5021837,0.515,0.045
5021838,0.445,0.020
5021839,0.430,0.020
5021840,0.360,-0.015
5021841,0.280,-0.030
5021842,0.240,-0.045
5021843,0.220,-0.040
5021844,0.190,-0.090
5021845,0.200,-0.115
5021846,0.195,-0.130
5021847,0.160,-0.155
5021848,0.165,-0.145
5021849,0.170,-0.145
5021850,0.155,-0.180
5021851,0.140,-0.220
5021852,0.095,-0.240
5021853,0.055,-0.265
5021854,0.030,-0.265
5021855,0.000,-0.265
5021856,-0.035,-0.300
5021857,-0.010,-0.285
5021858,-0.055,-0.275
5021859,-0.090,-0.285
5021860,-0.055,-0.270
5021861,-0.050,-0.250
5021862,-0.065,-0.240
5021863,-0.040,-0.235
5021864,-0.030,-0.250
5021865,-0.025,-0.255
5021866,-0.025,-0.225
5021867,-0.050,-0.235
5021868,-0.060,-0.255
5021869,-0.060,-0.275
5021870,-0.060,-0.225
5021871,-0.055,-0.235
5021872,-0.030,-0.215
5021873,-0.040,-0.225
5021874,-0.025,-0.210
5021875,-0.005,-0.230
5021876,-0.025,-0.245
5021877,-0.020,-0.250
5021878,0.010,-0.250
5021879,0.000,-0.230
5021880,-0.010,-0.230
5021881,-0.025,-0.230
5021882,-0.045,-0.255
5021883,-0.050,-0.270
5021884,-0.050,-0.290
5021885,-0.010,-0.280
5021886,-0.025,-0.260
5021887,-0.040,-0.230
5021888,-0.030,-0.250
5021889,-0.025,-0.230
5021890,-0.045,-0.225
5021891,-0.050,-0.155
5021892,-0.020,-0.035
5021893,0.015,0.105
5021894,0.095,0.390
5021895,0.125,0.685
5021896,-0.020,0.925
5021897,-0.340,1.210
5021898,-0.910,1.535
5021899,-1.490,1.765
5021900,-1.995,1.855
5021901,-2.350,1.845
5021902,-2.445,1.800
5021903,-2.390,1.755
5021904,-2.270,1.680
5021905,-2.095,1.645
5021906,-2.005,1.535
5021907,-1.915,1.385
5021908,-1.790,1.280
5021909,-1.675,1.155
5021910,-1.595,1.020
5021911,-1.450,0.850
5021912,-1.350,0.555
5021913,-1.240,0.145
5021914,-1.130,-0.250
5021915,-1.050,-0.545
5021916,-0.940,-0.715
5021917,-0.810,-0.755
5021918,-0.660,-0.715
5021919,-0.490,-0.675
5021920,-0.320,-0.670
5021921,-0.140,-0.660
5021922,0.035,-0.620
5021923,0.185,-0.625
5021924,0.235,-0.640
5021925,0.305,-0.630
5021926,0.335,-0.615
5021927,0.355,-0.615
5021928,0.385,-0.600
5021929,0.395,-0.630
5021930,0.420,-0.605
5021931,0.470,-0.570
5021932,0.470,-0.560
5021933,0.505,-0.530
5021934,0.520,-0.505
5021935,0.520,-0.480
5021936,0.555,-0.495
5021937,0.585,-0.490
5021938,0.635,-0.480
5021939,0.640,-0.475
5021940,0.670,-0.495
5021941,0.690,-0.490
5021942,0.725,-0.455
5021943,0.705,-0.460
5021944,0.690,-0.495
5021945,0.660,-0.515
5021946,0.700,-0.465
5021947,0.700,-0.430
5021948,0.705,-0.420
5021949,0.735,-0.420
5021950,0.790,-0.410
5021951,0.825,-0.400
5021952,0.840,-0.420
5021953,0.880,-0.360
5021954,0.895,-0.335
5021955,0.880,-0.355
5021956,0.870,-0.370
5021957,0.890,-0.340
5021958,0.850,-0.305
5021959,0.815,-0.245
5021960,0.765,-0.215
5021961,0.760,-0.210
5021962,0.700,-0.190
5021963,0.690,-0.165
5021964,0.625,-0.150
5021965,0.575,-0.095
5021966,0.560,-0.070
5021967,0.500,-0.125
5021968,0.440,-0.135
5021969,0.385,-0.130
5021970,0.330,-0.140
5021971,0.265,-0.135
5021972,0.220,-0.145
5021973,0.205,-0.160
5021974,0.200,-0.160
5021975,0.180,-0.160
5021976,0.160,-0.160
5021977,0.135,-0.190
5021978,0.140,-0.205
5021979,0.125,-0.210
5021980,0.090,-0.230
5021981,0.085,-0.275
5021982,0.095,-0.280
5021983,0.060,-0.290
5021984,0.040,-0.285
5021985,0.000,-0.275
5021986,0.020,-0.280
5021987,0.005,-0.265
5021988,0.000,-0.265
5021989,-0.025,-0.300
5021990,-0.060,-0.265
5021991,-0.060,-0.265
5021992,-0.060,-0.315
5021993,-0.045,-0.335
5021994,-0.045,-0.310
5021995,-0.065,-0.325
5021996,-0.065,-0.325
5021997,-0.055,-0.360
5021998,-0.050,-0.345
5021999,-0.030,-0.340
5022000,-0.060,-0.350
5022001,-0.035,-0.355
5022002,-0.055,-0.330
5022003,-0.035,-0.340
5022004,-0.045,-0.355
5022005,-0.035,-0.340
5022006,-0.045,-0.325
5022007,-0.015,-0.335
5022008,-0.005,-0.365
5022009,-0.025,-0.335
5022010,-0.030,-0.290
5022011,-0.050,-0.270
5022012,-0.040,-0.280
5022013,0.000,-0.275
5022014,0.030,-0.235
5022015,0.025,-0.230
5022016,0.030,-0.240
5022017,0.030,-0.205
5022018,0.030,-0.200
5022019,0.035,-0.205
5022020,0.035,-0.200
5022021,0.050,-0.190
5022022,0.070,-0.195
5022023,0.055,-0.200
5022024,0.045,-0.175
5022025,0.035,-0.190
5022026,0.045,-0.200
5022027,0.060,-0.195
5022028,0.060,-0.200
5022029,0.050,-0.210
5022030,0.065,-0.225
5022031,0.070,-0.240
5022032,0.055,-0.210
5022033,0.080,-0.145
5022034,0.050,-0.120
5022035,0.030,-0.015
5022036,0.040,0.155
5022037,0.115,0.390
5022038,0.100,0.635
5022039,-0.090,0.855
5022040,-0.480,1.070
5022041,-1.105,1.320
5022042,-1.735,1.505
5022043,-2.265,1.600
5022044,-2.560,1.550
5022045,-2.575,1.480
5022046,-2.415,1.390
5022047,-2.215,1.320
5022048,-2.115,1.240
5022049,-2.055,1.090
5022050,-1.915,0.970
5022051,-1.720,0.840
5022052,-1.605,0.695
5022053,-1.495,0.570
5022054,-1.360,0.335
5022055,-1.245,-0.060
5022056,-1.120,-0.510
5022057,-1.050,-0.755
5022058,-0.960,-0.835
5022059,-0.825,-0.860
5022060,-0.690,-0.790
5022061,-0.525,-0.695
5022062,-0.340,-0.640
5022063,-0.155,-0.625
5022064,0.025,-0.605
5022065,0.200,-0.595
5022066,0.270,-0.580
5022067,0.345,-0.560
5022068,0.385,-0.595
5022069,0.430,-0.610
5022070,0.450,-0.595
5022071,0.475,-0.610
5022072,0.490,-0.585
5022073,0.520,-0.575
5022074,0.530,-0.585
5022075,0.530,-0.620
5022076,0.560,-0.600
5022077,0.555,-0.580
5022078,0.560,-0.600
5022079,0.570,-0.590
5022080,0.600,-0.555
5022081,0.630,-0.535
5022082,0.655,-0.460
5022083,0.675,-0.465
5022084,0.720,-0.520
5022085,0.745,-0.515
5022086,0.805,-0.515
5022087,0.830,-0.470
5022088,0.855,-0.425
5022089,0.875,-0.360
5022090,0.910,-0.370
5022091,0.990,-0.350
5022092,1.030,-0.340
5022093,1.060,-0.360
5022094,1.075,-0.440
5022095,1.070,-0.405
5022096,1.050,-0.405
5022097,1.025,-0.390
5022098,0.990,-0.380
5022099,0.920,-0.390
5022100,0.890,-0.350
5022101,0.850,-0.310
5022102,0.785,-0.265
5022103,0.745,-0.230
5022104,0.705,-0.175
5022105,0.665,-0.120
5022106,0.605,-0.150
5022107,0.545,-0.165
5022108,0.520,-0.155
5022109,0.455,-0.175
5022110,0.385,-0.170
5022111,0.345,-0.245
5022112,0.310,-0.280
5022113,0.270,-0.300
5022114,0.195,-0.310
5022115,0.140,-0.350
5022116,0.115,-0.380
5022117,0.060,-0.415
5022118,0.040,-0.435
5022119,0.000,-0.445
5022120,-0.005,-0.465
5022121,-0.005,-0.465
5022122,-0.040,-0.480
5022123,-0.035,-0.450
5022124,-0.045,-0.460
5022125,-0.045,-0.430
5022126,-0.020,-0.395
5022127,-0.050,-0.390
5022128,-0.065,-0.420
5022129,-0.025,-0.435
5022130,-0.020,-0.450
5022131,-0.030,-0.445
5022132,-0.040,-0.440
5022133,-0.035,-0.435
5022134,0.000,-0.435
5022135,0.000,-0.460
5022136,0.015,-0.450
5022137,0.020,-0.420
5022138,0.030,-0.425
5022139,0.035,-0.440
5022140,0.065,-0.455
5022141,0.065,-0.455
5022142,0.060,-0.425
5022143,0.015,-0.410
5022144,0.000,-0.410
5022145,0.005,-0.405
5022146,-0.010,-0.390
5022147,-0.015,-0.380
5022148,-0.030,-0.395
5022149,-0.025,-0.400
5022150,-0.020,-0.410
5022151,-0.025,-0.425
5022152,-0.020,-0.410
5022153,-0.020,-0.425
5022154,-0.045,-0.430
5022155,-0.040,-0.465
5022156,-0.030,-0.470
5022157,-0.050,-0.460
5022158,-0.035,-0.485
5022159,-0.030,-0.505
5022160,-0.030,-0.500
5022161,0.000,-0.480
5022162,-0.045,-0.475
5022163,-0.030,-0.485
5022164,-0.030,-0.490
5022165,-0.030,-0.480
5022166,-0.050,-0.460
5022167,-0.030,-0.440
5022168,-0.030,-0.450
5022169,-0.020,-0.435
5022170,-0.020,-0.460
5022171,-0.020,-0.485
5022172,-0.045,-0.395
5022173,-0.035,-0.375
5022174,-0.055,-0.400
5022175,0.000,-0.365
5022176,0.000,-0.345
5022177,0.015,-0.350
5022178,0.020,-0.360
5022179,0.035,-0.405
5022180,0.045,-0.415
5022181,0.055,-0.355
5022182,0.035,-0.335
5022183,0.005,-0.390
5022184,-0.010,-0.395
5022185,-0.005,-0.400
5022186,-0.025,-0.415
5022187,-0.035,-0.460
5022188,-0.085,-0.440
5022189,-0.070,-0.410
5022190,-0.105,-0.455
5022191,-0.105,-0.480
5022192,-0.100,-0.480
5022193,-0.095,-0.415
5022194,-0.085,-0.310
5022195,-0.090,-0.145
5022196,-0.090,0.105
5022197,-0.005,0.495
5022198,-0.015,0.780
5022199,-0.150,0.965
5022200,-0.400,1.050
5022201,-0.850,1.210
5022202,-1.340,1.415
5022203,-1.800,1.455
5022204,-2.175,1.395
5022205,-2.305,1.345
5022206,-2.200,1.210
5022207,-2.055,1.010
5022208,-1.925,0.850
5022209,-1.850,0.685
5022210,-1.760,0.550
5022211,-1.615,0.495
5022212,-1.515,0.440
5022213,-1.410,0.380
5022214,-1.300,0.225
5022215,-1.155,-0.040
5022216,-1.060,-0.465
5022217,-0.965,-0.805
5022218,-0.880,-0.945
5022219,-0.775,-0.950
5022220,-0.630,-0.860
5022221,-0.485,-0.725
5022222,-0.325,-0.695
5022223,-0.160,-0.685
5022224,-0.010,-0.625
5022225,0.135,-0.570
5022226,0.250,-0.575
5022227,0.300,-0.590
5022228,0.345,-0.590
5022229,0.380,-0.590
5022230,0.385,-0.615
5022231,0.410,-0.630
5022232,0.440,-0.615
5022233,0.420,-0.605
5022234,0.410,-0.610
5022235,0.425,-0.650
5022236,0.425,-0.645
5022237,0.435,-0.640
5022238,0.425,-0.650
5022239,0.390,-0.640
5022240,0.430,-0.615
5022241,0.490,-0.580
5022242,0.495,-0.595
5022243,0.495,-0.605
5022244,0.545,-0.580
5022245,0.570,-0.550
5022246,0.640,-0.510
5022247,0.640,-0.500
5022248,0.665,-0.520
5022249,0.680,-0.545
5022250,0.735,-0.530
5022251,0.755,-0.475
5022252,0.785,-0.425
5022253,0.820,-0.440
5022254,0.860,-0.435
5022255,0.915,-0.425
5022256,0.955,-0.425
5022257,0.985,-0.425
5022258,0.985,-0.400
5022259,1.015,-0.385
5022260,1.025,-0.365
5022261,1.040,-0.395
5022262,1.030,-0.355
5022263,1.015,-0.290
5022264,0.965,-0.290
5022265,0.920,-0.270
5022266,0.880,-0.220
5022267,0.825,-0.180
5022268,0.780,-0.200
5022269,0.730,-0.220
5022270,0.700,-0.205
5022271,0.630,-0.205
5022272,0.565,-0.240
5022273,0.485,-0.280
5022274,0.405,-0.310
5022275,0.360,-0.310
5022276,0.335,-0.340
5022277,0.265,-0.380
5022278,0.210,-0.430
5022279,0.185,-0.425
5022280,0.175,-0.460
5022281,0.145,-0.490
5022282,0.130,-0.440
5022283,0.130,-0.465
5022284,0.100,-0.510
5022285,0.065,-0.495
5022286,0.090,-0.455
5022287,0.090,-0.460
5022288,0.085,-0.470
5022289,0.090,-0.510
5022290,0.105,-0.480
5022291,0.075,-0.475
5022292,0.090,-0.450
5022293,0.055,-0.450
5022294,0.070,-0.415
5022295,0.080,-0.395
5022296,0.115,-0.395
5022297,0.155,-0.380
5022298,0.175,-0.400
5022299,0.175,-0.380
5022300,0.170,-0.375
5022301,0.195,-0.395
5022302,0.205,-0.380
5022303,0.240,-0.365
5022304,0.230,-0.290
5022305,0.210,-0.170
5022306,0.190,-0.010
5022307,0.260,0.185
5022308,0.345,0.425
5022309,0.340,0.625
5022310,0.155,0.805
5022311,-0.255,1.005
5022312,-0.870,1.185
5022313,-1.480,1.270
5022314,-1.980,1.270
5022315,-2.305,1.200
5022316,-2.375,1.105
5022317,-2.270,1.000
5022318,-2.155,0.880
5022319,-2.080,0.785
5022320,-2.030,0.600
5022321,-1.890,0.435
5022322,-1.770,0.290
5022323,-1.645,0.135
5022324,-1.545,-0.020
5022325,-1.425,-0.215
5022326,-1.305,-0.560
5022327,-1.200,-0.940
5022328,-1.145,-1.125
5022329,-1.040,-1.155
5022330,-0.920,-1.115
5022331,-0.790,-0.990
5022332,-0.570,-0.850
5022333,-0.360,-0.750
5022334,-0.195,-0.720
5022335,0.005,-0.695
5022336,0.200,-0.690
5022337,0.335,-0.715
5022338,0.400,-0.705
5022339,0.435,-0.715
5022340,0.475,-0.710
5022341,0.510,-0.705
5022342,0.520,-0.710
5022343,0.545,-0.680
5022344,0.570,-0.665
5022345,0.585,-0.660
5022346,0.610,-0.665
5022347,0.605,-0.665
5022348,0.640,-0.625
5022349,0.650,-0.600
5022350,0.645,-0.655
5022351,0.665,-0.645
5022352,0.680,-0.600
5022353,0.680,-0.615
5022354,0.685,-0.615
5022355,0.720,-0.635
5022356,0.730,-0.635
5022357,0.755,-0.650
5022358,0.775,-0.670
5022359,0.790,-0.670
5022360,0.825,-0.665
5022361,0.830,-0.660
5022362,0.845,-0.680
5022363,0.870,-0.680
5022364,0.895,-0.670
5022365,0.910,-0.660
5022366,0.915,-0.660
5022367,0.930,-0.620
5022368,0.920,-0.595
5022369,0.915,-0.590
5022370,0.940,-0.565
5022371,0.935,-0.520
5022372,0.895,-0.480
5022373,0.880,-0.435
5022374,0.870,-0.375
5022375,0.825,-0.320
5022376,0.810,-0.250
5022377,0.815,-0.255
5022378,0.770,-0.230
5022379,0.735,-0.225
5022380,0.690,-0.190
5022381,0.630,-0.225
5022382,0.600,-0.210
5022383,0.570,-0.220
5022384,0.525,-0.225
5022385,0.470,-0.270
5022386,0.390,-0.280
5022387,0.345,-0.270
5022388,0.300,-0.300
5022389,0.235,-0.320
5022390,0.210,-0.350
5022391,0.195,-0.375
5022392,0.150,-0.400
5022393,0.100,-0.455
5022394,0.090,-0.445
5022395,0.055,-0.425
5022396,0.030,-0.425
5022397,0.025,-0.465
5022398,0.010,-0.475
5022399,-0.015,-0.470
5022400,0.015,-0.495
5022401,0.035,-0.490
5022402,0.040,-0.480
5022403,0.015,-0.470
5022404,0.030,-0.495
5022405,0.040,-0.505
5022406,0.065,-0.480
5022407,0.045,-0.450
5022408,0.070,-0.455
5022409,0.065,-0.450
5022410,0.075,-0.410
5022411,0.065,-0.450
5022412,0.070,-0.450
5022413,0.075,-0.455
5022414,0.085,-0.380
5022415,0.070,-0.340
5022416,0.070,-0.355
5022417,0.070,-0.360
5022418,0.095,-0.335
5022419,0.115,-0.350
5022420,0.105,-0.375
5022421,0.110,-0.355
5022422,0.130,-0.345
5022423,0.120,-0.325
5022424,0.125,-0.335
5022425,0.115,-0.355
5022426,0.140,-0.370
5022427,0.110,-0.345
5022428,0.130,-0.380
5022429,0.110,-0.355
5022430,0.075,-0.370
5022431,0.085,-0.375
5022432,0.085,-0.400
5022433,0.040,-0.395
5022434,0.015,-0.395
5022435,0.000,-0.405
5022436,0.005,-0.420
5022437,-0.020,-0.425
5022438,-0.025,-0.430
5022439,-0.035,-0.440
5022440,-0.025,-0.435
5022441,-0.025,-0.460
5022442,-0.035,-0.500
5022443,-0.045,-0.510
5022444,-0.045,-0.475
5022445,-0.020,-0.485
5022446,-0.040,-0.485
5022447,-0.030,-0.435
5022448,0.010,-0.320
5022449,0.000,-0.160
5022450,0.025,0.040
5022451,0.085,0.310
5022452,0.170,0.555
5022453,0.020,0.745
5022454,-0.285,1.030
5022455,-0.775,1.350
5022456,-1.400,1.595
5022457,-1.895,1.700
5022458,-2.245,1.725
5022459,-2.405,1.665
5022460,-2.330,1.645
5022461,-2.210,1.580
5022462,-2.050,1.540
5022463,-1.930,1.430
5022464,-1.825,1.280
5022465,-1.655,1.150
5022466,-1.530,1.015
5022467,-1.430,0.895
5022468,-1.320,0.770
5022469,-1.195,0.600
5022470,-1.085,0.215
5022471,-1.005,-0.245
5022472,-0.955,-0.605
5022473,-0.870,-0.780
5022474,-0.760,-0.865
5022475,-0.645,-0.845
5022476,-0.515,-0.765
5022477,-0.385,-0.730
5022478,-0.210,-0.715
5022479,-0.070,-0.670
5022480,0.105,-0.675
5022481,0.215,-0.650
5022482,0.310,-0.695
5022483,0.345,-0.730
5022484,0.405,-0.715
5022485,0.430,-0.695
5022486,0.440,-0.700
5022487,0.455,-0.690
5022488,0.480,-0.690
5022489,0.485,-0.665
5022490,0.520,-0.665
5022491,0.520,-0.695
5022492,0.545,-0.650
5022493,0.565,-0.645
5022494,0.585,-0.645
5022495,0.610,-0.640
5022496,0.630,-0.620
5022497,0.660,-0.550
5022498,0.695,-0.490
5022499,0.710,-0.505
5022500,0.775,-0.490
5022501,0.820,-0.475
5022502,0.880,-0.475
5022503,0.900,-0.475
5022504,0.930,-0.480
5022505,0.970,-0.450
5022506,0.995,-0.445
5022507,1.035,-0.440
5022508,1.050,-0.450
5022509,1.100,-0.475
5022510,1.110,-0.440
5022511,1.130,-0.430
5022512,1.130,-0.440
5022513,1.150,-0.445
5022514,1.160,-0.460
5022515,1.140,-0.420
5022516,1.120,-0.415
5022517,1.085,-0.430
5022518,1.030,-0.425
5022519,1.010,-0.395
5022520,0.955,-0.345
5022521,0.890,-0.310
5022522,0.860,-0.310
5022523,0.810,-0.280
5022524,0.745,-0.235
5022525,0.695,-0.225
5022526,0.650,-0.225
5022527,0.610,-0.200
5022528,0.555,-0.210
5022529,0.490,-0.250
5022530,0.435,-0.275
5022531,0.395,-0.270
5022532,0.365,-0.250
5022533,0.315,-0.265
5022534,0.280,-0.305
5022535,0.245,-0.335
5022536,0.230,-0.355
5022537,0.200,-0.350
5022538,0.165,-0.345
5022539,0.155,-0.330
5022540,0.165,-0.320
5022541,0.155,-0.330
5022542,0.155,-0.375
5022543,0.140,-0.400
5022544,0.165,-0.370
5022545,0.135,-0.375
5022546,0.125,-0.365
5022547,0.085,-0.410
5022548,0.085,-0.405
5022549,0.075,-0.375
5022550,0.070,-0.370
5022551,0.085,-0.395
5022552,0.095,-0.410
5022553,0.100,-0.360
5022554,0.085,-0.360
5022555,0.060,-0.390
5022556,0.095,-0.405
5022557,0.105,-0.405
5022558,0.100,-0.435
5022559,0.115,-0.455
5022560,0.100,-0.505
5022561,0.090,-0.475
5022562,0.095,-0.500
5022563,0.055,-0.510
5022564,0.050,-0.485
5022565,0.055,-0.485
5022566,0.085,-0.510
5022567,0.080,-0.520
5022568,0.085,-0.525
5022569,0.115,-0.490
5022570,0.105,-0.510
5022571,0.080,-0.510
5022572,0.095,-0.495
5022573,0.115,-0.465
5022574,0.115,-0.460
5022575,0.095,-0.485
5022576,0.100,-0.495
5022577,0.095,-0.505
5022578,0.085,-0.510
5022579,0.100,-0.480
5022580,0.105,-0.440
5022581,0.075,-0.460
5022582,0.070,-0.465
5022583,0.090,-0.475
5022584,0.065,-0.450
5022585,0.045,-0.445
5022586,0.040,-0.430
5022587,0.020,-0.435
5022588,0.035,-0.450
5022589,0.030,-0.455
5022590,0.000,-0.435
5022591,0.025,-0.440
5022592,0.025,-0.445
5022593,0.040,-0.460
5022594,0.035,-0.465
5022595,0.020,-0.440
5022596,0.000,-0.445
5022597,0.025,-0.485
5022598,0.030,-0.505
5022599,0.000,-0.500
5022600,0.000,-0.515
5022601,-0.020,-0.515
5022602,0.000,-0.510
5022603,-0.020,-0.425
5022604,-0.050,-0.355
5022605,-0.050,-0.255
5022606,-0.005,-0.060
5022607,0.090,0.210
5022608,0.100,0.445
5022609,-0.060,0.680
5022610,-0.425,0.965
5022611,-1.060,1.250
5022612,-1.640,1.405
5022613,-2.135,1.495
5022614,-2.415,1.490
5022615,-2.455,1.440
5022616,-2.365,1.335
5022617,-2.220,1.240
5022618,-2.065,1.195
5022619,-2.010,1.070
5022620,-1.885,0.935
5022621,-1.750,0.825
5022622,-1.610,0.715
5022623,-1.495,0.595
5022624,-1.390,0.420
5022625,-1.280,0.165
5022626,-1.160,-0.190
5022627,-1.060,-0.580
5022628,-0.995,-0.810
5022629,-0.885,-0.915
5022630,-0.780,-0.880
5022631,-0.680,-0.800
5022632,-0.515,-0.730
5022633,-0.315,-0.700
5022634,-0.125,-0.675
5022635,0.035,-0.670
5022636,0.215,-0.675
5022637,0.325,-0.705
5022638,0.415,-0.730
5022639,0.445,-0.730
5022640,0.470,-0.740
5022641,0.495,-0.740
5022642,0.480,-0.760
5022643,0.520,-0.740
5022644,0.510,-0.755
5022645,0.520,-0.770
5022646,0.540,-0.760
5022647,0.555,-0.715
5022648,0.580,-0.710
5022649,0.570,-0.725
5022650,0.565,-0.715
5022651,0.620,-0.720
5022652,0.620,-0.720
5022653,0.645,-0.700
5022654,0.675,-0.655
5022655,0.695,-0.640
5022656,0.710,-0.630
5022657,0.740,-0.640
5022658,0.755,-0.640
5022659,0.805,-0.640
5022660,0.830,-0.610
5022661,0.860,-0.565
5022662,0.855,-0.510
5022663,0.905,-0.520
5022664,0.985,-0.525
5022665,0.995,-0.480
5022666,1.045,-0.475
5022667,1.070,-0.440
5022668,1.095,-0.435
5022669,1.095,-0.400
5022670,1.110,-0.395
5022671,1.120,-0.390
5022672,1.065,-0.375
5022673,1.050,-0.320
5022674,1.020,-0.305
5022675,0.980,-0.260
5022676,0.945,-0.265
5022677,0.925,-0.255
5022678,0.850,-0.215
5022679,0.840,-0.230
5022680,0.790,-0.220
5022681,0.740,-0.200
5022682,0.670,-0.200
5022683,0.595,-0.270
5022684,0.545,-0.310
5022685,0.485,-0.310
5022686,0.395,-0.330
5022687,0.350,-0.385
5022688,0.290,-0.450
5022689,0.235,-0.460
5022690,0.215,-0.440
5022691,0.190,-0.450
5022692,0.160,-0.505
5022693,0.150,-0.550
5022694,0.110,-0.540
5022695,0.075,-0.555
5022696,0.070,-0.560
5022697,0.080,-0.540
5022698,0.070,-0.545
5022699,0.050,-0.570
5022700,0.070,-0.580
5022701,0.045,-0.550
5022702,0.030,-0.500
5022703,0.040,-0.510
5022704,0.050,-0.510
5022705,0.065,-0.500
5022706,0.095,-0.490
5022707,0.090,-0.475
5022708,0.095,-0.460
5022709,0.110,-0.465
5022710,0.105,-0.480
5022711,0.110,-0.460
5022712,0.130,-0.455
5022713,0.135,-0.475
5022714,0.100,-0.490
5022715,0.095,-0.485
5022716,0.090,-0.460
5022717,0.090,-0.460
5022718,0.085,-0.480
5022719,0.125,-0.475
5022720,0.115,-0.485
5022721,0.120,-0.515
5022722,0.085,-0.540
5022723,0.090,-0.525
5022724,0.080,-0.540
5022725,0.070,-0.560
5022726,0.055,-0.560
5022727,0.025,-0.555
5022728,0.015,-0.570
5022729,0.015,-0.620
5022730,0.040,-0.640
5022731,0.040,-0.605
5022732,0.020,-0.575
5022733,0.015,-0.585
5022734,0.015,-0.625
5022735,0.025,-0.605
5022736,0.015,-0.575
5022737,0.015,-0.590
5022738,0.020,-0.610
5022739,0.020,-0.610
5022740,0.020,-0.630
5022741,0.000,-0.615
5022742,0.015,-0.535
5022743,-0.010,-0.485
5022744,-0.005,-0.510
5022745,0.015,-0.530
5022746,0.030,-0.520
5022747,0.015,-0.520
5022748,0.015,-0.540
5022749,0.020,-0.535
5022750,0.020,-0.535
5022751,0.010,-0.505
5022752,-0.020,-0.490
5022753,-0.055,-0.500
5022754,-0.035,-0.515
5022755,-0.020,-0.460
5022756,-0.045,-0.470
5022757,-0.035,-0.475
5022758,-0.030,-0.485
5022759,-0.010,-0.480
5022760,-0.010,-0.465
5022761,0.000,-0.480
5022762,-0.010,-0.495
5022763,0.000,-0.500
5022764,0.000,-0.520
5022765,0.010,-0.550
5022766,0.010,-0.530
5022767,0.025,-0.530
5022768,0.015,-0.515
5022769,0.020,-0.560
5022770,0.020,-0.580
5022771,0.010,-0.570
5022772,0.020,-0.580
5022773,0.025,-0.585
5022774,-0.005,-0.580
5022775,0.005,-0.545
5022776,0.025,-0.530
5022777,0.025,-0.500
5022778,0.040,-0.510
5022779,0.055,-0.515
5022780,0.045,-0.515
5022781,0.060,-0.530
5022782,0.065,-0.500
5022783,0.070,-0.450
5022784,0.045,-0.420
5022785,0.070,-0.430
5022786,0.080,-0.435
5022787,0.070,-0.455
5022788,0.060,-0.470
5022789,0.025,-0.480
5022790,0.015,-0.455
5022791,0.005,-0.475
5022792,-0.040,-0.460
5022793,-0.060,-0.435
5022794,-0.080,-0.440
5022795,-0.075,-0.440
5022796,-0.090,-0.440
5022797,-0.075,-0.470
5022798,-0.080,-0.430
5022799,-0.090,-0.400
5022800,-0.085,-0.385
5022801,-0.055,-0.335
5022802,-0.055,-0.250
5022803,-0.035,-0.110
5022804,0.005,0.095
5022805,0.060,0.320
5022806,-0.020,0.460
5022807,-0.300,0.610
5022808,-0.780,0.840
5022809,-1.470,1.060
5022810,-2.015,1.190
5022811,-2.460,1.200
5022812,-2.675,1.160
5022813,-2.605,1.120
5022814,-2.470,0.990
5022815,-2.290,0.860
5022816,-2.180,0.730
5022817,-2.100,0.620
5022818,-1.960,0.510
5022819,-1.810,0.410
5022820,-1.695,0.275
5022821,-1.570,0.190
5022822,-1.460,0.065
5022823,-1.315,-0.215
5022824,-1.210,-0.580
5022825,-1.115,-0.860
5022826,-0.985,-0.945
5022827,-0.860,-0.960
5022828,-0.705,-0.910
5022829,-0.550,-0.820
5022830,-0.360,-0.825
5022831,-0.230,-0.810
5022832,-0.075,-0.750
5022833,0.060,-0.705
5022834,0.175,-0.720
5022835,0.255,-0.740
5022836,0.325,-0.730
5022837,0.335,-0.720
5022838,0.360,-0.720
5022839,0.400,-0.700
5022840,0.425,-0.690
5022841,0.445,-0.670
5022842,0.460,-0.680
5022843,0.485,-0.690
5022844,0.490,-0.680
5022845,0.505,-0.670
5022846,0.525,-0.685
5022847,0.540,-0.685
5022848,0.555,-0.670
5022849,0.600,-0.640
5022850,0.615,-0.625
5022851,0.635,-0.645
5022852,0.640,-0.640
5022853,0.710,-0.630
5022854,0.730,-0.630
5022855,0.740,-0.620
5022856,0.785,-0.600
5022857,0.835,-0.605
5022858,0.845,-0.565
5022859,0.855,-0.605
5022860,0.905,-0.575
5022861,0.930,-0.595
5022862,0.980,-0.580
5022863,1.005,-0.555
5022864,1.000,-0.515
5022865,0.995,-0.505
5022866,1.005,-0.470
5022867,1.005,-0.495
5022868,1.015,-0.495
5022869,1.040,-0.480
5022870,1.025,-0.430
5022871,1.005,-0.420
5022872,0.945,-0.400
5022873,0.865,-0.375
5022874,0.810,-0.315
5022875,0.730,-0.265
5022876,0.685,-0.210
5022877,0.645,-0.195
5022878,0.590,-0.160
5022879,0.505,-0.155
5022880,0.490,-0.190
5022881,0.435,-0.215
5022882,0.375,-0.210
5022883,0.340,-0.235
5022884,0.305,-0.290
5022885,0.220,-0.335
5022886,0.180,-0.340
5022887,0.135,-0.335
5022888,0.100,-0.385
5022889,0.055,-0.390
5022890,0.020,-0.435
5022891,-0.020,-0.465
5022892,0.000,-0.485
5022893,0.010,-0.535
5022894,-0.035,-0.500
5022895,-0.025,-0.485
5022896,-0.020,-0.510
5022897,-0.050,-0.535
5022898,-0.015,-0.505
5022899,-0.015,-0.535
5022900,-0.050,-0.550
5022901,-0.025,-0.560
5022902,0.000,-0.535
5022903,-0.015,-0.520
5022904,-0.040,-0.505
5022905,-0.030,-0.495
5022906,-0.015,-0.500
5022907,0.005,-0.520
5022908,0.015,-0.550
5022909,0.025,-0.555
5022910,0.020,-0.560
5022911,0.000,-0.570
5022912,-0.005,-0.530
5022913,-0.045,-0.510
5022914,-0.045,-0.535
5022915,-0.060,-0.540
5022916,-0.035,-0.535
5022917,-0.060,-0.535
5022918,-0.045,-0.540
5022919,-0.070,-0.540
5022920,-0.040,-0.520
5022921,-0.045,-0.540
5022922,-0.040,-0.560
5022923,-0.030,-0.540
5022924,-0.010,-0.575
5022925,-0.015,-0.585
5022926,-0.005,-0.575
5022927,-0.015,-0.575
5022928,-0.010,-0.575
5022929,-0.035,-0.575
5022930,-0.030,-0.610
5022931,-0.005,-0.615
5022932,-0.020,-0.585
5022933,-0.030,-0.580
5022934,-0.015,-0.590
5022935,-0.015,-0.565
5022936,0.020,-0.565
5022937,0.045,-0.560
5022938,0.020,-0.555
5022939,0.020,-0.545
5022940,0.015,-0.585
5022941,0.015,-0.610
5022942,0.015,-0.560
5022943,0.015,-0.505
5022944,0.000,-0.500
5022945,-0.030,-0.530
5022946,-0.010,-0.555
5022947,0.005,-0.520
5022948,-0.005,-0.500
5022949,-0.025,-0.520
5022950,-0.050,-0.545
5022951,-0.070,-0.505
5022952,-0.090,-0.485
5022953,-0.100,-0.470
5022954,-0.085,-0.415
5022955,-0.095,-0.325
5022956,-0.105,-0.175
5022957,-0.090,-0.020
5022958,0.020,0.210
5022959,0.030,0.455
5022960,-0.105,0.630
5022961,-0.465,0.885
5022962,-1.135,1.140
5022963,-1.730,1.365
5022964,-2.220,1.380
5022965,-2.535,1.315
5022966,-2.545,1.260
5022967,-2.420,1.190
5022968,-2.250,1.065
5022969,-2.135,0.955
5022970,-2.065,0.780
5022971,-1.940,0.610
5022972,-1.775,0.500
5022973,-1.680,0.340
5022974,-1.580,0.200
5022975,-1.450,0.020
5022976,-1.330,-0.355
5022977,-1.230,-0.765
5022978,-1.125,-1.030
5022979,-1.030,-1.075
5022980,-0.915,-1.085
5022981,-0.780,-0.975
5022982,-0.610,-0.870
5022983,-0.405,-0.820
5022984,-0.210,-0.785
5022985,-0.020,-0.725
5022986,0.160,-0.755
5022987,0.295,-0.740
5022988,0.365,-0.750
5022989,0.410,-0.745
5022990,0.395,-0.775
5022991,0.400,-0.785
5022992,0.395,-0.760
5022993,0.405,-0.715
5022994,0.405,-0.715
5022995,0.425,-0.695
5022996,0.470,-0.660
5022997,0.480,-0.650
5022998,0.480,-0.680
5022999,0.505,-0.655
5023000,0.545,-0.655
5023001,0.545,-0.655
5023002,0.565,-0.640
5023003,0.605,-0.625
5023004,0.635,-0.615
5023005,0.655,-0.640
5023006,0.680,-0.670
5023007,0.700,-0.670
5023008,0.710,-0.640
5023009,0.745,-0.670
5023010,0.770,-0.675
5023011,0.780,-0.670
5023012,0.800,-0.595
5023013,0.860,-0.655
5023014,0.850,-0.670
5023015,0.900,-0.640
5023016,0.900,-0.575
5023017,0.910,-0.575
5023018,0.970,-0.530
5023019,0.940,-0.540
5023020,0.980,-0.530
5023021,0.940,-0.525
5023022,0.945,-0.505
5023023,0.895,-0.440
5023024,0.870,-0.360
5023025,0.795,-0.355
5023026,0.785,-0.320
5023027,0.760,-0.280
5023028,0.710,-0.265
5023029,0.680,-0.290
5023030,0.590,-0.275
5023031,0.530,-0.280
5023032,0.440,-0.265
5023033,0.360,-0.285
5023034,0.295,-0.295
5023035,0.280,-0.315
5023036,0.215,-0.335
5023037,0.205,-0.370
5023038,0.170,-0.390
5023039,0.145,-0.385
5023040,0.080,-0.415
5023041,0.045,-0.455
5023042,0.040,-0.470
5023043,0.040,-0.490
5023044,0.015,-0.520
5023045,0.005,-0.535
5023046,-0.005,-0.525
5023047,0.000,-0.540
5023048,0.010,-0.555
5023049,0.005,-0.580
5023050,0.000,-0.610
5023051,0.010,-0.595
5023052,0.000,-0.610
5023053,-0.035,-0.655
5023054,0.005,-0.650
5023055,0.010,-0.610
5023056,-0.010,-0.615
5023057,-0.015,-0.635
5023058,-0.015,-0.665
5023059,-0.020,-0.660
5023060,0.000,-0.680
5023061,-0.015,-0.660
5023062,-0.015,-0.660
5023063,-0.025,-0.630
5023064,-0.035,-0.620
5023065,-0.050,-0.625
5023066,-0.045,-0.620
5023067,-0.060,-0.640
5023068,-0.080,-0.670
5023069,-0.105,-0.700
5023070,-0.115,-0.710
5023071,-0.120,-0.685
5023072,-0.120,-0.665
5023073,-0.125,-0.640
5023074,-0.115,-0.625
5023075,-0.120,-0.575
5023076,-0.095,-0.555
5023077,-0.095,-0.570
5023078,-0.075,-0.605
5023079,-0.075,-0.605
5023080,-0.070,-0.600
5023081,-0.065,-0.630
5023082,-0.065,-0.665
5023083,-0.060,-0.655
5023084,-0.065,-0.625
5023085,-0.055,-0.645
5023086,-0.060,-0.645
5023087,-0.030,-0.650
5023088,-0.045,-0.630
5023089,-0.065,-0.640
5023090,-0.070,-0.665
5023091,-0.080,-0.660
5023092,-0.090,-0.630
5023093,-0.085,-0.590
5023094,-0.045,-0.580
5023095,-0.050,-0.570
5023096,-0.045,-0.615
5023097,-0.035,-0.675
5023098,-0.050,-0.650
5023099,-0.070,-0.560
5023100,-0.085,-0.555
5023101,-0.070,-0.530
5023102,-0.035,-0.555
5023103,-0.035,-0.545
5023104,-0.040,-0.570
5023105,-0.050,-0.560
5023106,-0.045,-0.565
5023107,-0.030,-0.580
5023108,-0.075,-0.550
5023109,-0.100,-0.560
5023110,-0.115,-0.555
5023111,-0.140,-0.555
5023112,-0.145,-0.585
5023113,-0.170,-0.565
5023114,-0.155,-0.530
5023115,-0.140,-0.520
5023116,-0.125,-0.560
5023117,-0.105,-0.630
5023118,-0.115,-0.615
5023119,-0.105,-0.585
5023120,-0.130,-0.600
5023121,-0.130,-0.615
5023122,-0.105,-0.620
5023123,-0.100,-0.600
5023124,-0.090,-0.615
5023125,-0.110,-0.585
5023126,-0.090,-0.605
5023127,-0.075,-0.605
5023128,-0.065,-0.595
5023129,-0.065,-0.515
5023130,-0.080,-0.425
5023131,-0.080,-0.255
5023132,0.015,-0.030
5023133,0.105,0.220
5023134,0.055,0.405
5023135,-0.165,0.545
5023136,-0.585,0.805
5023137,-1.210,1.100
5023138,-1.825,1.320
5023139,-2.295,1.375
5023140,-2.565,1.335
5023141,-2.550,1.275
5023142,-2.420,1.165
5023143,-2.265,1.045
5023144,-2.170,0.955
5023145,-2.095,0.775
5023146,-1.955,0.620
5023147,-1.815,0.510
5023148,-1.750,0.410
5023149,-1.650,0.300
5023150,-1.530,0.150
5023151,-1.410,-0.120
5023152,-1.300,-0.520
5023153,-1.215,-0.805
5023154,-1.085,-0.965
5023155,-0.955,-0.980
5023156,-0.820,-0.890
5023157,-0.640,-0.905
5023158,-0.465,-0.890
5023159,-0.275,-0.840
5023160,-0.115,-0.810
5023161,0.050,-0.835
5023162,0.145,-0.850
5023163,0.215,-0.835
5023164,0.245,-0.835
5023165,0.290,-0.820
5023166,0.305,-0.850
5023167,0.335,-0.870
5023168,0.390,-0.845
5023169,0.375,-0.815
5023170,0.405,-0.795
5023171,0.425,-0.760
5023172,0.435,-0.740
5023173,0.475,-0.765
5023174,0.520,-0.750
5023175,0.530,-0.695
5023176,0.555,-0.630
5023177,0.560,-0.600
5023178,0.585,-0.565
5023179,0.675,-0.575
5023180,0.700,-0.580
5023181,0.740,-0.555
5023182,0.780,-0.540
5023183,0.810,-0.545
5023184,0.820,-0.565
5023185,0.850,-0.545
5023186,0.870,-0.535
5023187,0.840,-0.500
5023188,0.895,-0.505
5023189,0.905,-0.480
5023190,0.940,-0.480
5023191,0.935,-0.500
5023192,0.930,-0.520
5023193,0.965,-0.525
5023194,0.980,-0.520
5023195,0.970,-0.485
5023196,0.940,-0.450
5023197,0.930,-0.430
5023198,0.900,-0.455
5023199,0.885,-0.440
5023200,0.850,-0.410
5023201,0.810,-0.375
5023202,0.760,-0.355
5023203,0.695,-0.320
5023204,0.645,-0.310
5023205,0.610,-0.310
5023206,0.540,-0.290
5023207,0.485,-0.285
5023208,0.430,-0.295
5023209,0.390,-0.305
5023210,0.335,-0.340
5023211,0.305,-0.365
5023212,0.230,-0.380
5023213,0.195,-0.365
5023214,0.150,-0.335
5023215,0.160,-0.310
5023216,0.110,-0.320
5023217,0.120,-0.370
5023218,0.105,-0.420
5023219,0.110,-0.415
5023220,0.050,-0.410
5023221,0.040,-0.450
5023222,0.010,-0.455
5023223,0.000,-0.450
5023224,0.000,-0.475
5023225,-0.020,-0.480
5023226,-0.060,-0.455
5023227,-0.060,-0.455
5023228,-0.095,-0.465
5023229,-0.090,-0.480
5023230,-0.115,-0.490
5023231,-0.095,-0.470
5023232,-0.070,-0.510
5023233,-0.060,-0.545
5023234,-0.045,-0.555
5023235,-0.045,-0.535
5023236,-0.045,-0.550
5023237,-0.025,-0.580
5023238,-0.040,-0.575
5023239,-0.020,-0.540
5023240,-0.025,-0.565
5023241,-0.030,-0.570
5023242,-0.030,-0.545
5023243,0.020,-0.565
5023244,0.020,-0.565
5023245,0.025,-0.545
5023246,0.035,-0.540
5023247,0.030,-0.545
5023248,0.020,-0.560
5023249,0.025,-0.555
5023250,0.010,-0.515
5023251,0.010,-0.475
5023252,0.005,-0.480
5023253,0.010,-0.460
5023254,0.035,-0.465
5023255,0.020,-0.475
5023256,0.025,-0.470
5023257,0.030,-0.470
5023258,0.000,-0.495
5023259,-0.010,-0.515
5023260,-0.010,-0.495
5023261,-0.040,-0.485
5023262,-0.075,-0.480
5023263,-0.080,-0.480
5023264,-0.075,-0.460
5023265,-0.120,-0.450
5023266,-0.105,-0.470
5023267,-0.120,-0.475
5023268,-0.120,-0.475
5023269,-0.105,-0.475
5023270,-0.080,-0.500
5023271,-0.090,-0.480
5023272,-0.095,-0.465
5023273,-0.090,-0.480
5023274,-0.095,-0.485
5023275,-0.100,-0.480
5023276,-0.095,-0.480
5023277,-0.090,-0.460
5023278,-0.070,-0.455
5023279,-0.070,-0.480
5023280,-0.040,-0.480
5023281,-0.040,-0.470
5023282,-0.030,-0.435
5023283,-0.025,-0.380
5023284,-0.020,-0.280
5023285,0.000,-0.140
5023286,0.055,0.015
5023287,0.135,0.250
5023288,0.150,0.500
5023289,-0.010,0.715
5023290,-0.420,0.960
5023291,-0.990,1.235
5023292,-1.610,1.470
5023293,-2.135,1.550
5023294,-2.495,1.505
5023295,-2.610,1.440
5023296,-2.485,1.390
5023297,-2.320,1.270
5023298,-2.185,1.160
5023299,-2.115,0.995
5023300,-2.005,0.840
5023301,-1.885,0.725
5023302,-1.770,0.570
5023303,-1.690,0.425
5023304,-1.550,0.280
5023305,-1.415,0.010
5023306,-1.310,-0.385
5023307,-1.255,-0.745
5023308,-1.155,-0.905
5023309,-1.015,-0.945
5023310,-0.870,-0.920
5023311,-0.755,-0.875
5023312,-0.580,-0.815
5023313,-0.425,-0.795
5023314,-0.255,-0.800
5023315,-0.095,-0.785
5023316,0.075,-0.775
5023317,0.145,-0.775
5023318,0.195,-0.800
5023319,0.255,-0.810
5023320,0.305,-0.800
5023321,0.335,-0.785
5023322,0.365,-0.770
5023323,0.390,-0.740
5023324,0.395,-0.700
5023325,0.450,-0.675
5023326,0.460,-0.670
5023327,0.490,-0.690
5023328,0.525,-0.685
5023329,0.545,-0.630
5023330,0.550,-0.585
5023331,0.565,-0.570
5023332,0.590,-0.550
5023333,0.640,-0.535
5023334,0.675,-0.535
5023335,0.705,-0.535
5023336,0.735,-0.525
5023337,0.785,-0.525
5023338,0.815,-0.525
5023339,0.825,-0.505
5023340,0.860,-0.525
5023341,0.890,-0.515
5023342,0.925,-0.500
5023343,0.940,-0.495
5023344,0.950,-0.475
5023345,0.960,-0.495
5023346,0.970,-0.480
5023347,0.985,-0.470
5023348,0.995,-0.465
5023349,0.975,-0.420
5023350,0.985,-0.440
5023351,0.950,-0.415
5023352,0.930,-0.415
5023353,0.910,-0.405
5023354,0.880,-0.355
5023355,0.825,-0.345
5023356,0.790,-0.320
5023357,0.735,-0.305
5023358,0.690,-0.285
5023359,0.640,-0.295
5023360,0.590,-0.285
5023361,0.535,-0.280
5023362,0.495,-0.255
5023363,0.430,-0.250
5023364,0.380,-0.270
5023365,0.350,-0.290
5023366,0.330,-0.255
5023367,0.295,-0.300
5023368,0.270,-0.310
5023369,0.225,-0.335
5023370,0.220,-0.370
5023371,0.170,-0.340
5023372,0.125,-0.320
5023373,0.080,-0.310
5023374,0.100,-0.330
5023375,0.130,-0.330
5023376,0.135,-0.350
5023377,0.130,-0.335
5023378,0.125,-0.355
5023379,0.125,-0.370
5023380,0.120,-0.375
5023381,0.120,-0.375
5023382,0.110,-0.375
5023383,0.130,-0.365
5023384,0.115,-0.370
5023385,0.090,-0.365
5023386,0.080,-0.365
5023387,0.035,-0.345
5023388,0.030,-0.360
5023389,0.045,-0.370
5023390,0.030,-0.360
5023391,0.015,-0.380
5023392,-0.005,-0.400
5023393,0.010,-0.415
5023394,0.020,-0.405
5023395,0.005,-0.445
5023396,0.000,-0.430
5023397,-0.015,-0.425
5023398,-0.015,-0.440
5023399,0.000,-0.465
5023400,-0.005,-0.450
5023401,-0.015,-0.465
5023402,-0.025,-0.445
5023403,-0.025,-0.480
5023404,-0.005,-0.470
5023405,-0.025,-0.440
5023406,-0.005,-0.355
5023407,0.010,-0.265
5023408,0.005,-0.090
5023409,0.040,0.090
5023410,0.135,0.275
5023411,0.185,0.470
5023412,0.025,0.710
5023413,-0.355,0.990
5023414,-1.005,1.265
5023415,-1.695,1.470
5023416,-2.200,1.535
5023417,-2.555,1.510
5023418,-2.675,1.430
5023419,-2.600,1.370
5023420,-2.475,1.280
5023421,-2.325,1.235
5023422,-2.235,1.125
5023423,-2.145,0.960
5023424,-1.995,0.815
5023425,-1.835,0.670
5023426,-1.755,0.505
5023427,-1.650,0.325
5023428,-1.550,0.045
5023429,-1.435,-0.305
5023430,-1.315,-0.710
5023431,-1.245,-0.930
5023432,-1.150,-0.985
5023433,-1.015,-0.905
5023434,-0.875,-0.825
5023435,-0.695,-0.740
5023436,-0.490,-0.695
5023437,-0.255,-0.660
5023438,-0.065,-0.620
5023439,0.135,-0.630
5023440,0.250,-0.615
5023441,0.345,-0.625
5023442,0.410,-0.615
5023443,0.435,-0.615
5023444,0.470,-0.615
5023445,0.525,-0.595
5023446,0.545,-0.575
5023447,0.595,-0.550
5023448,0.595,-0.520
5023449,0.615,-0.505
5023450,0.635,-0.515
5023451,0.650,-0.505
5023452,0.665,-0.455
5023453,0.680,-0.395
5023454,0.730,-0.385
5023455,0.780,-0.385
5023456,0.810,-0.400
5023457,0.865,-0.360
5023458,0.875,-0.375
5023459,0.895,-0.385
5023460,0.910,-0.370
5023461,0.935,-0.395
5023462,0.935,-0.380
5023463,0.945,-0.380
5023464,0.975,-0.360
5023465,0.985,-0.380
5023466,1.000,-0.390
5023467,1.040,-0.385
5023468,1.010,-0.390
5023469,1.020,-0.390
5023470,1.035,-0.395
5023471,1.030,-0.395
5023472,1.010,-0.390
5023473,1.010,-0.395
5023474,0.980,-0.380
5023475,0.970,-0.370
5023476,0.920,-0.335
5023477,0.885,-0.340
5023478,0.860,-0.310
5023479,0.815,-0.250
5023480,0.755,-0.230
5023481,0.730,-0.210
5023482,0.685,-0.225
5023483,0.640,-0.220
5023484,0.610,-0.205
5023485,0.540,-0.210
5023486,0.480,-0.215
5023487,0.440,-0.220
5023488,0.400,-0.210
5023489,0.350,-0.225
5023490,0.285,-0.265
5023491,0.275,-0.265
5023492,0.235,-0.215
5023493,0.180,-0.205
5023494,0.165,-0.210
5023495,0.170,-0.235
5023496,0.165,-0.210
5023497,0.175,-0.225
5023498,0.155,-0.225
5023499,0.145,-0.200
5023500,0.150,-0.175
5023501,0.160,-0.200
5023502,0.140,-0.230
5023503,0.160,-0.225
5023504,0.155,-0.225
5023505,0.145,-0.190
5023506,0.160,-0.190
5023507,0.165,-0.190
5023508,0.165,-0.180
5023509,0.165,-0.200
5023510,0.185,-0.225
5023511,0.170,-0.230
5023512,0.155,-0.255
5023513,0.115,-0.255
5023514,0.080,-0.285
5023515,0.070,-0.310
5023516,0.020,-0.295
5023517,0.030,-0.300
5023518,0.035,-0.300
5023519,0.015,-0.305
5023520,0.010,-0.310
5023521,0.010,-0.315
5023522,0.020,-0.335
5023523,0.025,-0.355
5023524,0.015,-0.380
5023525,0.030,-0.370
5023526,0.015,-0.380
5023527,0.005,-0.400
5023528,0.010,-0.385
5023529,0.000,-0.365
5023530,0.000,-0.335
5023531,0.010,-0.345
5023532,0.005,-0.355
5023533,0.015,-0.365
5023534,0.010,-0.360
5023535,0.015,-0.355
5023536,0.005,-0.345
5023537,0.005,-0.320
5023538,0.000,-0.320
5023539,0.020,-0.285
5023540,0.020,-0.270
5023541,0.040,-0.280
5023542,0.025,-0.265
5023543,0.035,-0.265
5023544,0.035,-0.245
5023545,0.040,-0.270
5023546,0.060,-0.285
5023547,0.065,-0.295
5023548,0.055,-0.285
5023549,0.055,-0.270
5023550,0.050,-0.280
5023551,0.035,-0.260
5023552,0.030,-0.245
5023553,0.000,-0.250
5023554,-0.010,-0.260
5023555,-0.025,-0.235
5023556,-0.045,-0.220
5023557,-0.035,-0.235
5023558,-0.045,-0.265
5023559,-0.045,-0.220
5023560,-0.035,-0.250
5023561,-0.030,-0.255
5023562,-0.025,-0.265
5023563,-0.040,-0.280
5023564,-0.025,-0.265
5023565,-0.015,-0.250
5023566,-0.035,-0.280
5023567,-0.005,-0.285
5023568,-0.030,-0.295
5023569,-0.020,-0.270
5023570,-0.015,-0.315
5023571,-0.020,-0.305
5023572,0.020,-0.275
5023573,0.015,-0.285
5023574,0.015,-0.285
5023575,0.010,-0.285
5023576,0.025,-0.305
5023577,0.035,-0.300
5023578,0.005,-0.280
5023579,0.000,-0.235
5023580,-0.020,-0.205
5023581,0.000,-0.215
5023582,0.005,-0.220
5023583,0.035,-0.235
5023584,0.055,-0.235
5023585,0.070,-0.240
5023586,0.055,-0.265
5023587,0.035,-0.230
5023588,0.030,-0.245
5023589,0.020,-0.250
5023590,0.010,-0.250
5023591,0.000,-0.235
5023592,-0.025,-0.235
5023593,-0.040,-0.225
5023594,-0.065,-0.235
5023595,-0.035,-0.225
5023596,-0.045,-0.230
5023597,-0.045,-0.245
5023598,-0.035,-0.230
5023599,-0.065,-0.255
5023600,-0.055,-0.295
5023601,-0.080,-0.290
5023602,-0.055,-0.285
5023603,-0.075,-0.305
5023604,-0.080,-0.315
5023605,-0.090,-0.295
5023606,-0.085,-0.280
5023607,-0.075,-0.290
5023608,-0.065,-0.320
5023609,-0.075,-0.325
5023610,-0.075,-0.300
5023611,-0.050,-0.315
5023612,-0.050,-0.335
5023613,-0.040,-0.325
5023614,-0.030,-0.295
5023615,-0.050,-0.295
5023616,-0.025,-0.315
5023617,-0.020,-0.340
5023618,-0.015,-0.315
5023619,0.000,-0.295
5023620,-0.035,-0.250
5023621,-0.015,-0.250
5023622,-0.015,-0.245
5023623,0.010,-0.230
5023624,0.025,-0.255
5023625,0.040,-0.290
5023626,0.000,-0.260
5023627,-0.015,-0.250
5023628,-0.045,-0.270
5023629,-0.055,-0.260
5023630,-0.070,-0.230
5023631,-0.070,-0.215
5023632,-0.060,-0.190
5023633,-0.015,-0.140
5023634,-0.030,-0.035
5023635,-0.015,0.115
5023636,0.050,0.300
5023637,0.100,0.525
5023638,0.025,0.690
5023639,-0.250,0.835
5023640,-0.750,1.005
5023641,-1.415,1.220
5023642,-1.980,1.380
5023643,-2.485,1.440
5023644,-2.755,1.410
5023645,-2.755,1.350
5023646,-2.655,1.295
5023647,-2.480,1.210
5023648,-2.330,1.155
5023649,-2.230,1.015
5023650,-2.145,0.850
5023651,-1.970,0.735
5023652,-1.815,0.635
5023653,-1.720,0.520
5023654,-1.610,0.405
5023655,-1.465,0.230
5023656,-1.350,-0.145
5023657,-1.230,-0.535
5023658,-1.130,-0.740
5023659,-1.010,-0.760
5023660,-0.875,-0.725
5023661,-0.750,-0.640
5023662,-0.545,-0.595
5023663,-0.395,-0.545
5023664,-0.215,-0.565
5023665,-0.025,-0.520
5023666,0.150,-0.515
5023667,0.280,-0.515
5023668,0.380,-0.500
5023669,0.395,-0.530
5023670,0.415,-0.515
5023671,0.430,-0.520
5023672,0.445,-0.485
5023673,0.460,-0.455
5023674,0.480,-0.470
5023675,0.495,-0.465
5023676,0.520,-0.455
5023677,0.545,-0.420
5023678,0.590,-0.425
5023679,0.590,-0.430
5023680,0.600,-0.420
5023681,0.635,-0.400
5023682,0.665,-0.410
5023683,0.665,-0.405
5023684,0.695,-0.415
5023685,0.720,-0.390
5023686,0.755,-0.370
5023687,0.790,-0.360
5023688,0.825,-0.355
5023689,0.870,-0.310
5023690,0.905,-0.320
5023691,0.920,-0.315
5023692,0.980,-0.330
5023693,1.010,-0.305
5023694,1.040,-0.325
5023695,1.090,-0.330
5023696,1.120,-0.365
5023697,1.105,-0.350
5023698,1.155,-0.300
5023699,1.115,-0.320
5023700,1.115,-0.330
5023701,1.120,-0.325
5023702,1.130,-0.295
5023703,1.130,-0.285
5023704,1.070,-0.295
5023705,1.050,-0.265
5023706,1.020,-0.230
5023707,0.975,-0.225
5023708,0.945,-0.185
5023709,0.915,-0.180
5023710,0.865,-0.135
5023711,0.800,-0.095
5023712,0.755,-0.095
5023713,0.705,-0.070
5023714,0.650,-0.030
5023715,0.565,-0.055
5023716,0.525,-0.080
5023717,0.490,-0.095
5023718,0.425,-0.080
5023719,0.370,-0.080
5023720,0.310,-0.125
5023721,0.280,-0.145
5023722,0.260,-0.145
5023723,0.210,-0.140
5023724,0.175,-0.150
5023725,0.170,-0.160
5023726,0.180,-0.175
5023727,0.165,-0.190
5023728,0.165,-0.180
5023729,0.145,-0.205
5023730,0.150,-0.220
5023731,0.140,-0.250
5023732,0.135,-0.265
5023733,0.075,-0.295
5023734,0.110,-0.300
5023735,0.100,-0.275
5023736,0.040,-0.240
5023737,0.035,-0.245
5023738,0.040,-0.240
5023739,0.065,-0.245
5023740,0.070,-0.275
5023741,0.065,-0.305
5023742,0.060,-0.310
5023743,0.050,-0.310
5023744,0.035,-0.305
5023745,0.020,-0.355
5023746,0.025,-0.340
5023747,0.025,-0.330
5023748,0.020,-0.335
5023749,-0.005,-0.360
5023750,0.010,-0.375
5023751,0.015,-0.365
5023752,0.045,-0.380
5023753,0.005,-0.440
5023754,0.025,-0.455
5023755,0.035,-0.440
5023756,0.025,-0.445
5023757,0.010,-0.440
5023758,0.020,-0.465
5023759,0.010,-0.475
5023760,-0.005,-0.475
5023761,0.000,-0.480
5023762,-0.020,-0.495
5023763,0.000,-0.455
5023764,0.005,-0.435
5023765,0.000,-0.430
5023766,0.020,-0.445
5023767,0.020,-0.435
5023768,0.020,-0.410
5023769,0.025,-0.430
5023770,0.010,-0.470
5023771,0.010,-0.460
5023772,0.000,-0.410
5023773,0.005,-0.395
5023774,-0.005,-0.370
5023775,0.000,-0.330
5023776,0.055,-0.260
5023777,0.085,-0.280
5023778,0.100,-0.255
5023779,0.095,-0.245
5023780,0.075,-0.255
5023781,0.070,-0.270
5023782,0.045,-0.265
5023783,0.040,-0.260
5023784,0.035,-0.250
5023785,0.005,-0.265
5023786,-0.005,-0.265
5023787,0.000,-0.265
5023788,-0.005,-0.270
5023789,-0.025,-0.275
5023790,-0.065,-0.255
5023791,-0.055,-0.215
5023792,-0.050,-0.210
5023793,-0.055,-0.215
5023794,-0.050,-0.210
5023795,-0.055,-0.245
5023796,-0.060,-0.260
5023797,-0.075,-0.295
5023798,-0.095,-0.275
5023799,-0.085,-0.275
5023800,-0.105,-0.260
5023801,-0.090,-0.280
5023802,-0.060,-0.270
5023803,-0.070,-0.260
5023804,-0.065,-0.260
5023805,-0.040,-0.245
5023806,-0.040,-0.225
5023807,-0.055,-0.220
5023808,-0.035,-0.175
5023809,-0.035,-0.065
5023810,-0.045,0.135
5023811,0.010,0.325
5023812,0.100,0.595
5023813,0.030,0.765
5023814,-0.250,0.905
5023815,-0.750,1.090
5023816,-1.475,1.320
5023817,-2.095,1.485
5023818,-2.600,1.465
5023819,-2.800,1.350
5023820,-2.740,1.260
5023821,-2.585,1.115
5023822,-2.410,1.015
5023823,-2.270,0.895
5023824,-2.195,0.750
5023825,-2.060,0.645
5023826,-1.920,0.505
5023827,-1.860,0.335
5023828,-1.775,0.235
5023829,-1.650,0.110
5023830,-1.555,-0.210
5023831,-1.430,-0.585
5023832,-1.335,-0.805
5023833,-1.210,-0.810
5023834,-1.060,-0.740
5023835,-0.890,-0.670
5023836,-0.715,-0.580
5023837,-0.515,-0.575
5023838,-0.320,-0.550
5023839,-0.120,-0.555
5023840,0.035,-0.540
5023841,0.160,-0.540
5023842,0.240,-0.550
5023843,0.285,-0.540
5023844,0.315,-0.520
5023845,0.355,-0.485
5023846,0.395,-0.490
5023847,0.435,-0.510
5023848,0.450,-0.485
5023849,0.460,-0.410
5023850,0.460,-0.380
5023851,0.500,-0.370
5023852,0.515,-0.350
5023853,0.565,-0.340
5023854,0.590,-0.350
5023855,0.610,-0.330
5023856,0.620,-0.315
5023857,0.655,-0.295
5023858,0.680,-0.285
5023859,0.710,-0.305
5023860,0.730,-0.275
5023861,0.750,-0.245
5023862,0.775,-0.270
5023863,0.815,-0.265
5023864,0.865,-0.270
5023865,0.915,-0.240
5023866,0.945,-0.285
5023867,0.985,-0.265
5023868,0.990,-0.270
5023869,1.020,-0.300
5023870,0.990,-0.340
5023871,0.980,-0.360
5023872,0.955,-0.380
5023873,0.925,-0.355
5023874,0.910,-0.325
5023875,0.855,-0.315
5023876,0.800,-0.320
5023877,0.775,-0.280
5023878,0.745,-0.245
5023879,0.735,-0.195
5023880,0.685,-0.190
5023881,0.670,-0.190
5023882,0.630,-0.140
5023883,0.570,-0.080
5023884,0.515,-0.085
5023885,0.500,-0.090
5023886,0.455,-0.105
5023887,0.380,-0.090
5023888,0.325,-0.090
5023889,0.255,-0.075
5023890,0.235,-0.075
5023891,0.215,-0.090
5023892,0.185,-0.135
5023893,0.150,-0.120
5023894,0.130,-0.110
5023895,0.100,-0.135
5023896,0.060,-0.170
5023897,0.060,-0.170
5023898,0.030,-0.160
5023899,0.010,-0.175
5023900,0.010,-0.200
5023901,0.020,-0.190
5023902,0.020,-0.160
5023903,0.015,-0.185
5023904,0.020,-0.240
5023905,0.020,-0.270
5023906,0.015,-0.240
5023907,0.000,-0.265
5023908,-0.040,-0.300
5023909,-0.045,-0.320
5023910,-0.045,-0.335
5023911,-0.055,-0.375
5023912,-0.075,-0.405
5023913,-0.105,-0.435
5023914,-0.125,-0.425
5023915,-0.145,-0.430
5023916,-0.180,-0.400
5023917,-0.195,-0.405
5023918,-0.195,-0.445
5023919,-0.175,-0.450
5023920,-0.170,-0.435
5023921,-0.140,-0.400
5023922,-0.160,-0.415
5023923,-0.160,-0.450
5023924,-0.140,-0.470
5023925,-0.130,-0.425
5023926,-0.130,-0.410
5023927,-0.130,-0.360
5023928,-0.130,-0.355
5023929,-0.115,-0.350
5023930,-0.100,-0.360
5023931,-0.090,-0.380
5023932,-0.090,-0.335
5023933,-0.070,-0.310
5023934,-0.085,-0.315
5023935,-0.060,-0.290
5023936,-0.065,-0.265
5023937,-0.065,-0.280
5023938,-0.055,-0.270
5023939,-0.045,-0.260
5023940,-0.040,-0.280
5023941,-0.040,-0.250
5023942,-0.015,-0.230
5023943,-0.035,-0.230
5023944,-0.050,-0.235
5023945,-0.080,-0.225
5023946,-0.060,-0.240
5023947,-0.085,-0.260
5023948,-0.090,-0.250
5023949,-0.095,-0.275
5023950,-0.125,-0.305
5023951,-0.110,-0.295
5023952,-0.150,-0.330
5023953,-0.120,-0.375
5023954,-0.150,-0.335
5023955,-0.155,-0.285
5023956,-0.160,-0.220
5023957,-0.160,-0.110
5023958,-0.130,0.030
5023959,-0.045,0.230
5023960,-0.015,0.395
5023961,-0.195,0.495
5023962,-0.550,0.665
5023963,-1.205,0.950
5023964,-1.920,1.170
5023965,-2.505,1.275
5023966,-2.860,1.275
5023967,-2.925,1.180
5023968,-2.805,1.135
5023969,-2.620,1.030
5023970,-2.480,0.950
5023971,-2.375,0.820
5023972,-2.275,0.640
5023973,-2.110,0.540
5023974,-1.970,0.435
5023975,-1.825,0.310
5023976,-1.685,0.190
5023977,-1.540,-0.030
5023978,-1.395,-0.390
5023979,-1.265,-0.705
5023980,-1.170,-0.810
5023981,-1.015,-0.780
5023982,-0.850,-0.665
5023983,-0.705,-0.580
5023984,-0.525,-0.520
5023985,-0.300,-0.470
5023986,-0.085,-0.430
5023987,0.070,-0.415
5023988,0.200,-0.435
5023989,0.270,-0.465
5023990,0.310,-0.450
5023991,0.360,-0.460
5023992,0.380,-0.460
5023993,0.390,-0.460
5023994,0.415,-0.465
5023995,0.445,-0.450
5023996,0.480,-0.440
5023997,0.505,-0.455
5023998,0.520,-0.430
5023999,0.535,-0.450
5024000,0.545,-0.480
5024001,0.560,-0.475
5024002,0.590,-0.480
5024003,0.580,-0.475
5024004,0.595,-0.465
5024005,0.635,-0.455
5024006,0.660,-0.430
5024007,0.700,-0.415
5024008,0.715,-0.450
5024009,0.755,-0.440
5024010,0.825,-0.420
5024011,0.850,-0.445
5024012,0.865,-0.425
5024013,0.890,-0.390
5024014,0.950,-0.370
5024015,0.945,-0.375
5024016,0.970,-0.380
5024017,0.995,-0.390
5024018,1.015,-0.370
5024019,1.045,-0.370
5024020,1.020,-0.365
5024021,0.980,-0.375
5024022,0.975,-0.340
5024023,0.900,-0.270
5024024,0.860,-0.250
5024025,0.840,-0.235
5024026,0.765,-0.200
5024027,0.725,-0.165
5024028,0.665,-0.140
5024029,0.580,-0.115
5024030,0.515,-0.115
5024031,0.460,-0.070
5024032,0.435,-0.100
5024033,0.380,-0.115
5024034,0.320,-0.090
5024035,0.265,-0.095
5024036,0.225,-0.140
5024037,0.160,-0.180
5024038,0.110,-0.205
5024039,0.070,-0.210
5024040,0.045,-0.225
5024041,0.005,-0.240
5024042,-0.010,-0.230
5024043,-0.005,-0.275
5024044,-0.040,-0.305
5024045,-0.025,-0.325
5024046,-0.060,-0.285
5024047,-0.035,-0.275
5024048,-0.055,-0.295
5024049,-0.080,-0.295
5024050,-0.070,-0.295
5024051,-0.070,-0.285
5024052,-0.060,-0.275
5024053,-0.090,-0.300
5024054,-0.065,-0.295
5024055,-0.060,-0.305
5024056,-0.035,-0.340
5024057,-0.035,-0.355
5024058,-0.045,-0.365
5024059,-0.045,-0.380
5024060,-0.010,-0.380
5024061,-0.030,-0.370
5024062,-0.050,-0.365
5024063,-0.075,-0.370
5024064,-0.110,-0.385
5024065,-0.130,-0.385
5024066,-0.160,-0.395
5024067,-0.170,-0.380
5024068,-0.185,-0.375
5024069,-0.195,-0.365
5024070,-0.200,-0.375
5024071,-0.205,-0.360
5024072,-0.190,-0.360
5024073,-0.180,-0.365
5024074,-0.180,-0.365
5024075,-0.185,-0.375
5024076,-0.190,-0.425
5024077,-0.195,-0.440
5024078,-0.175,-0.430
5024079,-0.180,-0.410
5024080,-0.180,-0.445
5024081,-0.205,-0.440
5024082,-0.200,-0.455
5024083,-0.205,-0.480
5024084,-0.200,-0.505
5024085,-0.200,-0.520
5024086,-0.210,-0.535
5024087,-0.210,-0.480
5024088,-0.195,-0.465
5024089,-0.205,-0.480
5024090,-0.190,-0.465
5024091,-0.180,-0.450
5024092,-0.175,-0.415
5024093,-0.180,-0.425
5024094,-0.150,-0.435
5024095,-0.135,-0.395
5024096,-0.135,-0.375
5024097,-0.115,-0.340
5024098,-0.130,-0.330
5024099,-0.105,-0.315
5024100,-0.045,-0.315
5024101,-0.020,-0.315
5024102,-0.040,-0.345
5024103,-0.070,-0.310
5024104,-0.055,-0.335
5024105,-0.095,-0.325
5024106,-0.130,-0.305
5024107,-0.160,-0.250
5024108,-0.140,-0.190
5024109,-0.155,-0.060
5024110,-0.125,0.105
5024111,-0.045,0.355
5024112,-0.065,0.475
5024113,-0.335,0.615
5024114,-0.755,0.810
5024115,-1.440,1.050
5024116,-2.145,1.235
5024117,-2.665,1.285
5024118,-2.935,1.205
5024119,-2.945,1.145
5024120,-2.800,1.060
5024121,-2.620,0.950
5024122,-2.505,0.855
5024123,-2.390,0.740
5024124,-2.290,0.570
5024125,-2.125,0.435
5024126,-1.980,0.305
5024127,-1.900,0.175
5024128,-1.755,0.075
5024129,-1.615,-0.135
5024130,-1.485,-0.480
5024131,-1.350,-0.785
5024132,-1.220,-0.930
5024133,-1.115,-0.925
5024134,-0.955,-0.900
5024135,-0.795,-0.810
5024136,-0.590,-0.730
5024137,-0.405,-0.700
5024138,-0.210,-0.670
5024139,-0.010,-0.660
5024140,0.190,-0.645
5024141,0.275,-0.670
5024142,0.345,-0.640
5024143,0.375,-0.630
5024144,0.365,-0.610
5024145,0.365,-0.595
5024146,0.380,-0.595
5024147,0.395,-0.570
5024148,0.420,-0.550
5024149,0.420,-0.545
5024150,0.435,-0.515
5024151,0.420,-0.530
5024152,0.455,-0.505
5024153,0.460,-0.505
5024154,0.505,-0.515
5024155,0.545,-0.510
5024156,0.550,-0.485
5024157,0.570,-0.495
5024158,0.615,-0.510
5024159,0.635,-0.515
5024160,0.665,-0.470
5024161,0.680,-0.500
5024162,0.690,-0.530
5024163,0.730,-0.530
5024164,0.775,-0.510
5024165,0.790,-0.515
5024166,0.840,-0.515
5024167,0.870,-0.480
5024168,0.890,-0.460
5024169,0.920,-0.455
5024170,0.945,-0.495
5024171,0.960,-0.445
5024172,0.980,-0.385
5024173,0.985,-0.400
5024174,0.990,-0.405
5024175,0.980,-0.360
5024176,0.935,-0.335
5024177,0.905,-0.310
5024178,0.850,-0.300
5024179,0.815,-0.280
5024180,0.785,-0.250
5024181,0.725,-0.240
5024182,0.645,-0.200
5024183,0.580,-0.220
5024184,0.525,-0.210
5024185,0.480,-0.200
5024186,0.410,-0.205
5024187,0.355,-0.240
5024188,0.275,-0.260
5024189,0.195,-0.275
5024190,0.140,-0.305
5024191,0.070,-0.305
5024192,0.055,-0.325
5024193,0.000,-0.345
5024194,-0.035,-0.325
5024195,-0.050,-0.340
5024196,-0.060,-0.340
5024197,-0.080,-0.320
5024198,-0.075,-0.335
5024199,-0.045,-0.370
5024200,-0.035,-0.385
5024201,-0.040,-0.405
5024202,-0.065,-0.430
5024203,-0.075,-0.435
5024204,-0.075,-0.435
5024205,-0.065,-0.435
5024206,-0.055,-0.430
5024207,-0.035,-0.450
5024208,-0.045,-0.460
5024209,-0.020,-0.435
5024210,-0.035,-0.440
5024211,-0.020,-0.480
5024212,-0.005,-0.490
5024213,0.015,-0.485
5024214,-0.005,-0.490
5024215,0.010,-0.495
5024216,0.010,-0.465
5024217,0.020,-0.430
5024218,0.020,-0.450
5024219,0.000,-0.465
5024220,-0.035,-0.455
5024221,-0.055,-0.455
5024222,-0.075,-0.490
5024223,-0.080,-0.520
5024224,-0.095,-0.485
5024225,-0.110,-0.470
5024226,-0.130,-0.495
5024227,-0.145,-0.465
5024228,-0.160,-0.465
5024229,-0.130,-0.430
5024230,-0.130,-0.405
5024231,-0.095,-0.435
5024232,-0.120,-0.450
5024233,-0.105,-0.445
5024234,-0.100,-0.480
5024235,-0.100,-0.515
5024236,-0.115,-0.500
5024237,-0.115,-0.495
5024238,-0.120,-0.535
5024239,-0.140,-0.545
5024240,-0.145,-0.525
5024241,-0.125,-0.525
5024242,-0.130,-0.555
5024243,-0.125,-0.540
5024244,-0.125,-0.515
5024245,-0.130,-0.550
5024246,-0.145,-0.500
5024247,-0.125,-0.485
5024248,-0.090,-0.490
5024249,-0.100,-0.480
5024250,-0.090,-0.455
5024251,-0.065,-0.465
5024252,-0.070,-0.435
5024253,-0.055,-0.410
5024254,-0.040,-0.390
5024255,-0.045,-0.350
5024256,-0.015,-0.340
5024257,0.030,-0.340
5024258,0.035,-0.350
5024259,0.030,-0.320
5024260,0.000,-0.240
5024261,-0.030,-0.115
5024262,0.005,0.055
5024263,0.015,0.265
5024264,-0.055,0.375
5024265,-0.350,0.530
5024266,-0.840,0.720
5024267,-1.585,0.975
5024268,-2.215,1.145
5024269,-2.705,1.195
5024270,-2.940,1.175
5024271,-2.925,1.100
5024272,-2.780,0.975
5024273,-2.565,0.895
5024274,-2.485,0.830
5024275,-2.380,0.655
5024276,-2.250,0.455
5024277,-2.095,0.335
5024278,-1.995,0.225
5024279,-1.860,0.105
5024280,-1.735,-0.035
5024281,-1.605,-0.255
5024282,-1.495,-0.610
5024283,-1.375,-0.905
5024284,-1.250,-1.055
5024285,-1.095,-1.035
5024286,-0.940,-0.925
5024287,-0.785,-0.860
5024288,-0.605,-0.865
5024289,-0.415,-0.855
5024290,-0.225,-0.780
5024291,-0.035,-0.725
5024292,0.125,-0.725
5024293,0.225,-0.735
5024294,0.310,-0.710
5024295,0.325,-0.700
5024296,0.355,-0.725
5024297,0.395,-0.735
5024298,0.430,-0.700
5024299,0.425,-0.695
5024300,0.445,-0.710
5024301,0.445,-0.665
5024302,0.435,-0.635
5024303,0.470,-0.605
5024304,0.475,-0.570
5024305,0.510,-0.560
5024306,0.545,-0.530
5024307,0.580,-0.500
5024308,0.605,-0.500
5024309,0.650,-0.495
5024310,0.670,-0.485
5024311,0.700,-0.480
5024312,0.740,-0.515
5024313,0.765,-0.510
5024314,0.810,-0.515
5024315,0.815,-0.540
5024316,0.820,-0.540
5024317,0.840,-0.520
5024318,0.875,-0.535
5024319,0.900,-0.540
5024320,0.925,-0.535
5024321,0.960,-0.525
5024322,0.965,-0.510
5024323,0.980,-0.495
5024324,0.975,-0.495
5024325,0.985,-0.480
5024326,1.000,-0.510
5024327,0.985,-0.455
5024328,0.950,-0.395
5024329,0.915,-0.345
5024330,0.880,-0.330
5024331,0.875,-0.295
5024332,0.830,-0.260
5024333,0.785,-0.275
5024334,0.720,-0.270
5024335,0.655,-0.260
5024336,0.580,-0.270
5024337,0.510,-0.280
5024338,0.440,-0.310
5024339,0.360,-0.335
5024340,0.285,-0.355
5024341,0.220,-0.375
5024342,0.160,-0.435
5024343,0.110,-0.455
5024344,0.050,-0.480
5024345,-0.025,-0.520
5024346,-0.070,-0.540
5024347,-0.090,-0.570
5024348,-0.110,-0.565
5024349,-0.120,-0.580
5024350,-0.160,-0.555
5024351,-0.155,-0.565
5024352,-0.180,-0.585
5024353,-0.170,-0.625
5024354,-0.185,-0.660
5024355,-0.170,-0.675
5024356,-0.180,-0.645
5024357,-0.210,-0.635
5024358,-0.185,-0.640
5024359,-0.175,-0.640
5024360,-0.155,-0.660
5024361,-0.145,-0.655
5024362,-0.145,-0.645
5024363,-0.130,-0.630
5024364,-0.085,-0.635
5024365,-0.080,-0.685
5024366,-0.060,-0.665
5024367,-0.080,-0.625
5024368,-0.080,-0.620
5024369,-0.075,-0.610
5024370,-0.040,-0.580
5024371,-0.005,-0.565
5024372,0.000,-0.570
5024373,0.010,-0.590
5024374,-0.005,-0.605
5024375,-0.015,-0.595
5024376,-0.040,-0.550
5024377,-0.050,-0.565
5024378,-0.070,-0.580
5024379,-0.085,-0.595
5024380,-0.090,-0.605
5024381,-0.105,-0.590
5024382,-0.110,-0.585
5024383,-0.105,-0.590
5024384,-0.100,-0.605
5024385,-0.100,-0.605
5024386,-0.100,-0.640
5024387,-0.095,-0.650
5024388,-0.075,-0.670
5024389,-0.090,-0.670
5024390,-0.100,-0.705
5024391,-0.115,-0.720
5024392,-0.125,-0.740
5024393,-0.130,-0.745
5024394,-0.140,-0.745
5024395,-0.160,-0.770
5024396,-0.150,-0.780
5024397,-0.160,-0.785
5024398,-0.170,-0.800
5024399,-0.170,-0.780
5024400,-0.175,-0.795
5024401,-0.170,-0.780
5024402,-0.155,-0.795
5024403,-0.140,-0.790
5024404,-0.160,-0.770
5024405,-0.150,-0.710
5024406,-0.160,-0.690
5024407,-0.170,-0.720
5024408,-0.145,-0.715
5024409,-0.100,-0.690
5024410,-0.125,-0.680
5024411,-0.100,-0.700
5024412,-0.120,-0.715
5024413,-0.125,-0.705
5024414,-0.170,-0.665
5024415,-0.155,-0.645
5024416,-0.175,-0.660
5024417,-0.135,-0.660
5024418,-0.135,-0.655
5024419,-0.145,-0.670
5024420,-0.160,-0.670
5024421,-0.150,-0.685
5024422,-0.150,-0.640
5024423,-0.170,-0.645
5024424,-0.160,-0.630
5024425,-0.150,-0.620
5024426,-0.140,-0.615
5024427,-0.135,-0.610
5024428,-0.125,-0.635
5024429,-0.110,-0.660
5024430,-0.115,-0.680
5024431,-0.115,-0.735
5024432,-0.120,-0.755
5024433,-0.125,-0.755
5024434,-0.125,-0.765
5024435,-0.150,-0.795
5024436,-0.120,-0.785
5024437,-0.160,-0.800
5024438,-0.155,-0.810
5024439,-0.135,-0.840
5024440,-0.130,-0.850
5024441,-0.150,-0.830
5024442,-0.120,-0.775
5024443,-0.135,-0.765
5024444,-0.140,-0.745
5024445,-0.105,-0.750
5024446,-0.080,-0.755
5024447,-0.075,-0.740
5024448,-0.080,-0.745
5024449,-0.065,-0.745
5024450,-0.080,-0.750
5024451,-0.065,-0.730
5024452,-0.065,-0.735
5024453,-0.075,-0.715
5024454,-0.095,-0.750
5024455,-0.100,-0.750
5024456,-0.100,-0.745
5024457,-0.110,-0.730
5024458,-0.130,-0.730
5024459,-0.140,-0.725
5024460,-0.175,-0.685
5024461,-0.190,-0.675
5024462,-0.180,-0.640
5024463,-0.145,-0.560
5024464,-0.140,-0.435
5024465,-0.135,-0.235
5024466,-0.035,0.010
5024467,0.000,0.240
5024468,-0.110,0.395
5024469,-0.435,0.490
5024470,-0.895,0.615
5024471,-1.525,0.790
5024472,-2.065,0.935
5024473,-2.515,0.925
5024474,-2.780,0.885
5024475,-2.815,0.800
5024476,-2.625,0.710
5024477,-2.450,0.590
5024478,-2.370,0.460
5024479,-2.295,0.315
5024480,-2.215,0.145
5024481,-2.015,0.000
5024482,-1.870,-0.130
5024483,-1.765,-0.250
5024484,-1.665,-0.320
5024485,-1.575,-0.500
5024486,-1.470,-0.820
5024487,-1.345,-1.135
5024488,-1.205,-1.280
5024489,-1.085,-1.340
5024490,-0.940,-1.330
5024491,-0.785,-1.255
5024492,-0.605,-1.185
5024493,-0.455,-1.135
5024494,-0.250,-1.120
5024495,-0.110,-1.080
5024496,0.035,-1.055
5024497,0.155,-1.070
5024498,0.215,-1.080
5024499,0.230,-1.090
5024500,0.245,-1.090
5024501,0.240,-1.110
5024502,0.240,-1.110
5024503,0.255,-1.085
5024504,0.255,-1.075
5024505,0.265,-1.060
5024506,0.270,-1.025
5024507,0.300,-0.990
5024508,0.290,-0.960
5024509,0.335,-0.940
5024510,0.365,-0.905
5024511,0.410,-0.875
5024512,0.430,-0.875
5024513,0.460,-0.885
5024514,0.495,-0.905
5024515,0.530,-0.935
5024516,0.550,-0.920
5024517,0.595,-0.865
5024518,0.620,-0.840
5024519,0.650,-0.870
5024520,0.695,-0.860
5024521,0.710,-0.830
5024522,0.735,-0.820
5024523,0.750,-0.800
5024524,0.800,-0.810
5024525,0.845,-0.850
5024526,0.880,-0.850
5024527,0.915,-0.835
5024528,0.935,-0.830
5024529,0.925,-0.840
5024530,0.925,-0.835
5024531,0.955,-0.840
5024532,0.975,-0.835
5024533,0.955,-0.830
5024534,0.930,-0.790
5024535,0.930,-0.770
5024536,0.905,-0.755
5024537,0.865,-0.745
5024538,0.815,-0.715
5024539,0.770,-0.705
5024540,0.725,-0.700
5024541,0.650,-0.680
5024542,0.590,-0.685
5024543,0.515,-0.660
5024544,0.455,-0.650
5024545,0.365,-0.680
5024546,0.305,-0.665
5024547,0.275,-0.655
5024548,0.230,-0.675
5024549,0.180,-0.710
5024550,0.120,-0.755
5024551,0.070,-0.750
5024552,0.040,-0.765
5024553,0.015,-0.820
5024554,-0.015,-0.835
5024555,-0.010,-0.875
5024556,-0.010,-0.890
5024557,-0.025,-0.900
5024558,-0.045,-0.930
5024559,-0.070,-0.950
5024560,-0.080,-0.935
5024561,-0.080,-0.970
5024562,-0.095,-0.995
5024563,-0.095,-1.010
5024564,-0.095,-1.000
5024565,-0.070,-1.040
5024566,-0.055,-1.030
5024567,-0.040,-1.010
5024568,-0.030,-0.995
5024569,-0.060,-1.025
5024570,-0.025,-1.020
5024571,-0.035,-1.010
5024572,-0.025,-0.985
5024573,-0.045,-1.030
5024574,0.000,-1.050
5024575,0.005,-1.045
5024576,-0.015,-1.040
5024577,-0.020,-1.070
5024578,-0.020,-1.065
5024579,-0.050,-1.070
5024580,-0.050,-1.065
5024581,-0.045,-1.070
5024582,-0.045,-1.075
5024583,-0.075,-1.085
5024584,-0.090,-1.110
5024585,-0.110,-1.110
5024586,-0.135,-1.115
5024587,-0.150,-1.105
5024588,-0.160,-1.075
5024589,-0.120,-1.090
5024590,-0.135,-1.070
5024591,-0.150,-1.100
5024592,-0.140,-1.075
5024593,-0.160,-1.115
5024594,-0.130,-1.125
5024595,-0.130,-1.165
5024596,-0.110,-1.180
5024597,-0.130,-1.170
5024598,-0.150,-1.185
5024599,-0.160,-1.195
5024600,-0.155,-1.170
5024601,-0.160,-1.165
5024602,-0.145,-1.195
5024603,-0.130,-1.210
5024604,-0.130,-1.240
5024605,-0.130,-1.270
5024606,-0.130,-1.280
5024607,-0.115,-1.280
5024608,-0.095,-1.290
5024609,-0.140,-1.305
5024610,-0.140,-1.260
5024611,-0.120,-1.230
5024612,-0.140,-1.240
5024613,-0.115,-1.220
5024614,-0.090,-1.210
5024615,-0.060,-1.185
5024616,-0.065,-1.195
5024617,-0.055,-1.220
5024618,-0.050,-1.190
5024619,-0.055,-1.180
5024620,-0.080,-1.205
5024621,-0.065,-1.205
5024622,-0.055,-1.200
5024623,-0.075,-1.170
5024624,-0.105,-1.170
5024625,-0.120,-1.175
5024626,-0.125,-1.155
5024627,-0.120,-1.145
5024628,-0.155,-1.135
5024629,-0.150,-1.120
5024630,-0.160,-1.090
5024631,-0.160,-1.090
5024632,-0.160,-1.105
5024633,-0.150,-1.105
5024634,-0.170,-1.135
5024635,-0.175,-1.130
5024636,-0.160,-1.150
5024637,-0.155,-1.175
5024638,-0.175,-1.185
5024639,-0.170,-1.190
5024640,-0.160,-1.195
5024641,-0.180,-1.210
5024642,-0.190,-1.205
5024643,-0.175,-1.195
5024644,-0.180,-1.205
5024645,-0.160,-1.210
5024646,-0.180,-1.245
5024647,-0.175,-1.250
5024648,-0.175,-1.270
5024649,-0.185,-1.270
5024650,-0.165,-1.260
5024651,-0.180,-1.195
5024652,-0.200,-1.170
5024653,-0.195,-1.190
5024654,-0.185,-1.200
5024655,-0.140,-1.170
5024656,-0.140,-1.180
5024657,-0.145,-1.225
5024658,-0.125,-1.240
5024659,-0.115,-1.205
5024660,-0.125,-1.175
5024661,-0.100,-1.175
5024662,-0.110,-1.165
5024663,-0.115,-1.165
5024664,-0.115,-1.160
5024665,-0.090,-1.150
5024666,-0.090,-1.180
5024667,-0.075,-1.185
5024668,-0.095,-1.165
5024669,-0.090,-1.155
5024670,-0.080,-1.185
5024671,-0.075,-1.150
5024672,-0.085,-1.160
5024673,-0.090,-1.165
5024674,-0.130,-1.180
5024675,-0.150,-1.165
5024676,-0.145,-1.150
5024677,-0.140,-1.105
5024678,-0.155,-1.050
5024679,-0.165,-0.930
5024680,-0.110,-0.705
5024681,-0.085,-0.400
5024682,-0.065,-0.095
5024683,-0.240,0.075
5024684,-0.555,0.165
5024685,-1.030,0.290
5024686,-1.565,0.475
5024687,-2.070,0.565
5024688,-2.470,0.475
5024689,-2.675,0.410
5024690,-2.615,0.270
5024691,-2.485,0.100
5024692,-2.365,-0.015
5024693,-2.285,-0.160
5024694,-2.200,-0.285
5024695,-2.020,-0.435
5024696,-1.875,-0.535
5024697,-1.775,-0.635
5024698,-1.660,-0.700
5024699,-1.525,-0.860
5024700,-1.430,-1.180
5024701,-1.340,-1.560
5024702,-1.320,-1.765
5024703,-1.205,-1.845
5024704,-1.095,-1.835
5024705,-0.900,-1.710
5024706,-0.710,-1.625
5024707,-0.540,-1.580
5024708,-0.360,-1.555
5024709,-0.200,-1.520
5024710,-0.045,-1.475
5024711,0.090,-1.475
5024712,0.155,-1.480
5024713,0.235,-1.465
5024714,0.260,-1.440
5024715,0.290,-1.440
5024716,0.340,-1.450
5024717,0.360,-1.450
5024718,0.385,-1.420
5024719,0.415,-1.400
5024720,0.405,-1.405
5024721,0.435,-1.395
5024722,0.455,-1.355
5024723,0.480,-1.340
5024724,0.460,-1.335
5024725,0.495,-1.310
5024726,0.485,-1.300
5024727,0.530,-1.330
5024728,0.575,-1.330
5024729,0.595,-1.295
5024730,0.605,-1.285
5024731,0.650,-1.275
5024732,0.665,-1.255
5024733,0.690,-1.255
5024734,0.720,-1.240
5024735,0.775,-1.215
5024736,0.795,-1.225
5024737,0.830,-1.220
5024738,0.850,-1.220
5024739,0.855,-1.215
5024740,0.915,-1.200
5024741,0.910,-1.210
5024742,0.965,-1.225
5024743,0.945,-1.185
5024744,0.970,-1.185
5024745,0.985,-1.160
5024746,0.970,-1.170
5024747,0.975,-1.130
5024748,0.995,-1.100
5024749,0.955,-1.080
5024750,0.920,-1.050
5024751,0.875,-1.015
5024752,0.825,-1.025
5024753,0.755,-1.030
5024754,0.680,-1.025
5024755,0.640,-1.010
5024756,0.585,-1.020
5024757,0.495,-0.985
5024758,0.435,-1.010
5024759,0.400,-1.020
5024760,0.350,-1.025
5024761,0.315,-1.030
5024762,0.245,-1.095
5024763,0.210,-1.135
5024764,0.150,-1.120
5024765,0.145,-1.135
5024766,0.115,-1.170
5024767,0.095,-1.180
5024768,0.045,-1.195
5024769,0.055,-1.215
5024770,0.060,-1.220
5024771,0.020,-1.200
5024772,0.000,-1.180
5024773,0.010,-1.165
5024774,-0.010,-1.175
5024775,0.025,-1.185
5024776,0.050,-1.185
5024777,0.050,-1.180
5024778,0.040,-1.195
5024779,0.025,-1.170
5024780,0.035,-1.165
5024781,0.025,-1.175
5024782,0.050,-1.145
5024783,0.045,-1.120
5024784,0.040,-1.105
5024785,0.050,-1.095
5024786,0.040,-1.140
5024787,0.055,-1.165
5024788,0.090,-1.125
5024789,0.080,-1.130
5024790,0.085,-1.130
5024791,0.075,-1.150
5024792,0.070,-1.160
5024793,0.065,-1.175
5024794,0.035,-1.180
5024795,-0.005,-1.205
5024796,0.010,-1.225
5024797,0.000,-1.245
5024798,0.000,-1.245
5024799,-0.020,-1.270
5024800,-0.030,-1.290
5024801,-0.020,-1.320
5024802,-0.005,-1.330
5024803,-0.030,-1.325
5024804,-0.030,-1.335
5024805,-0.020,-1.345
5024806,0.005,-1.375
5024807,0.020,-1.375
5024808,-0.010,-1.375
5024809,0.000,-1.365
5024810,-0.025,-1.315
5024811,-0.030,-1.280
5024812,-0.010,-1.275
5024813,-0.020,-1.255
5024814,0.010,-1.230
5024815,0.030,-1.245
5024816,0.040,-1.260
5024817,0.060,-1.240
5024818,0.025,-1.220
5024819,0.015,-1.225
5024820,0.035,-1.235
5024821,0.010,-1.190
5024822,0.000,-1.205
5024823,-0.010,-1.225
5024824,-0.035,-1.240
5024825,-0.035,-1.220
5024826,-0.045,-1.200
5024827,-0.055,-1.220
5024828,-0.075,-1.235
5024829,-0.070,-1.210
5024830,-0.125,-1.190
5024831,-0.125,-1.195
5024832,-0.140,-1.225
5024833,-0.150,-1.175
5024834,-0.160,-1.165
5024835,-0.170,-1.180
5024836,-0.175,-1.190
5024837,-0.165,-1.180
5024838,-0.170,-1.160
5024839,-0.160,-1.180
5024840,-0.140,-1.165
5024841,-0.130,-1.165
5024842,-0.130,-1.190
5024843,-0.095,-1.215
5024844,-0.140,-1.230
5024845,-0.140,-1.210
5024846,-0.145,-1.170
5024847,-0.160,-1.020
5024848,-0.145,-0.815
5024849,-0.080,-0.580
5024850,0.000,-0.315
5024851,0.000,-0.110
5024852,-0.230,0.055
5024853,-0.670,0.265
5024854,-1.300,0.465
5024855,-1.945,0.625
5024856,-2.425,0.685
5024857,-2.725,0.615
5024858,-2.755,0.560
5024859,-2.615,0.460
5024860,-2.435,0.355
5024861,-2.330,0.265
5024862,-2.235,0.065
5024863,-2.085,-0.080
5024864,-1.950,-0.180
5024865,-1.840,-0.295
5024866,-1.720,-0.430
5024867,-1.590,-0.625
5024868,-1.480,-0.995
5024869,-1.385,-1.420
5024870,-1.380,-1.755
5024871,-1.295,-1.810
5024872,-1.180,-1.785
5024873,-0.985,-1.680
5024874,-0.775,-1.620
5024875,-0.570,-1.590
5024876,-0.350,-1.585
5024877,-0.175,-1.530
5024878,0.010,-1.520
5024879,0.110,-1.500
5024880,0.190,-1.505
5024881,0.250,-1.510
5024882,0.275,-1.510
5024883,0.310,-1.450
5024884,0.340,-1.450
5024885,0.375,-1.430
5024886,0.380,-1.415
5024887,0.435,-1.405
5024888,0.450,-1.390
5024889,0.485,-1.370
5024890,0.495,-1.365
5024891,0.525,-1.340
5024892,0.525,-1.350
5024893,0.560,-1.360
5024894,0.585,-1.315
5024895,0.620,-1.300
5024896,0.630,-1.290
5024897,0.700,-1.275
5024898,0.735,-1.270
5024899,0.770,-1.270
5024900,0.800,-1.280
5024901,0.820,-1.275
5024902,0.845,-1.260
5024903,0.895,-1.270
5024904,0.910,-1.290
5024905,0.910,-1.275
5024906,0.935,-1.270
5024907,0.945,-1.285
5024908,0.970,-1.330
5024909,0.950,-1.330
5024910,0.925,-1.315
5024911,0.895,-1.315
5024912,0.905,-1.330
5024913,0.875,-1.260
5024914,0.865,-1.220
5024915,0.815,-1.195
5024916,0.785,-1.190
5024917,0.765,-1.155
5024918,0.710,-1.085
5024919,0.710,-1.055
5024920,0.680,-1.000
5024921,0.635,-0.955
5024922,0.595,-0.945
5024923,0.575,-0.930
5024924,0.540,-0.930
5024925,0.500,-0.960
5024926,0.450,-0.960
5024927,0.405,-0.975
5024928,0.330,-0.980
5024929,0.295,-0.990
5024930,0.245,-1.045
5024931,0.240,-1.055
5024932,0.170,-1.080
5024933,0.160,-1.095
5024934,0.125,-1.065
5024935,0.085,-1.070
5024936,0.060,-1.060
5024937,0.060,-1.080
5024938,0.075,-1.095
5024939,0.070,-1.060
5024940,0.075,-1.070
5024941,0.070,-1.085
5024942,0.070,-1.045
5024943,0.100,-1.050
5024944,0.080,-1.025
5024945,0.090,-1.030
5024946,0.115,-1.065
5024947,0.105,-1.040
5024948,0.115,-1.025
5024949,0.080,-1.085
5024950,0.065,-1.075
5024951,0.030,-1.060
5024952,0.020,-1.100
5024953,0.010,-1.145
5024954,-0.020,-1.170
5024955,0.000,-1.180
5024956,0.000,-1.175
5024957,-0.025,-1.180
5024958,-0.040,-1.205
5024959,-0.010,-1.205
5024960,-0.005,-1.200
5024961,-0.050,-1.205
5024962,-0.055,-1.220
5024963,-0.015,-1.210
5024964,0.000,-1.210
5024965,-0.025,-1.230
5024966,-0.040,-1.230
5024967,-0.025,-1.230
5024968,-0.045,-1.225
5024969,-0.050,-1.210
5024970,-0.080,-1.215
5024971,-0.060,-1.220
5024972,-0.010,-1.225
5024973,-0.010,-1.205
5024974,-0.035,-1.185
5024975,-0.010,-1.175
5024976,-0.040,-1.200
5024977,-0.035,-1.180
5024978,-0.030,-1.160
5024979,-0.065,-1.170
5024980,-0.080,-1.170
5024981,-0.050,-1.145
5024982,-0.045,-1.150
5024983,-0.040,-1.155
5024984,-0.010,-1.130
5024985,-0.030,-1.095
5024986,-0.050,-1.095
5024987,-0.045,-1.090
5024988,-0.040,-1.055
5024989,-0.070,-1.065
5024990,-0.085,-1.080
5024991,-0.070,-1.060
5024992,-0.075,-1.065
5024993,-0.090,-1.055
5024994,-0.045,-1.035
5024995,-0.040,-1.030
5024996,-0.010,-1.015
5024997,0.010,-1.025
5024998,0.035,-1.055
5024999,0.060,-1.060
5025000,0.050,-1.040
5025001,0.040,-1.040
5025002,0.055,-1.045
5025003,0.040,-1.080
5025004,0.060,-1.080
5025005,0.040,-1.085
5025006,0.045,-1.085
5025007,0.020,-1.095
5025008,0.005,-1.130
5025009,0.050,-1.095
5025010,0.035,-1.095
5025011,0.020,-1.120
5025012,0.005,-1.105
5025013,0.000,-1.075
5025014,-0.040,-1.060
5025015,-0.015,-1.060
5025016,-0.010,-1.090
5025017,0.000,-1.090
5025018,0.015,-1.085
5025019,0.000,-1.105
5025020,0.000,-1.130
5025021,-0.020,-1.080
5025022,-0.040,-1.035
5025023,-0.065,-0.920
5025024,-0.080,-0.720
5025025,-0.080,-0.660
5025026,-0.125,-0.880
5025027,-0.185,-1.160
5025028,-0.175,-1.160
5025029,-0.135,-0.885
5025030,-0.105,-0.650
5025031,-0.060,-0.595
5025032,0.025,-0.560
5025033,0.030,-0.360
5025034,-0.130,-0.120
5025035,-0.450,0.035
5025036,-0.980,0.240
5025037,-1.630,0.480
5025038,-2.150,0.600
5025039,-2.555,0.600
5025040,-2.670,0.620
5025041,-2.590,0.555
5025042,-2.425,0.495
5025043,-2.315,0.470
5025044,-2.215,0.420
5025045,-2.065,0.260
5025046,-1.870,0.160
5025047,-1.735,0.000
5025048,-1.645,-0.145
5025049,-1.550,-0.300
5025050,-1.400,-0.550
5025051,-1.270,-0.945
5025052,-1.210,-1.265
5025053,-1.110,-1.420
5025054,-0.990,-1.305
5025055,-0.850,-0.985
5025056,-0.700,-0.975
5025057,-0.540,-1.130
5025058,-0.365,-1.130
5025059,-0.185,-0.870
5025060,0.005,-0.740
5025061,0.115,-1.160
5025062,0.155,-1.555
5025063,0.180,-1.825
5025064,0.230,-1.745
5025065,0.290,-1.640
5025066,0.330,-1.630
5025067,0.340,-1.600
5025068,0.370,-1.505
5025069,0.425,-1.400
5025070,0.440,-1.380
5025071,0.455,-1.425
5025072,0.435,-1.440
5025073,0.410,-1.400
5025074,0.455,-1.340
5025075,0.510,-1.280
5025076,0.565,-1.325
5025077,0.570,-1.360
5025078,0.565,-1.320
5025079,0.600,-1.280
5025080,0.630,-1.250
5025081,0.650,-1.295
5025082,0.665,-1.355
5025083,0.710,-1.315
5025084,0.750,-1.190
5025085,0.770,-1.000
5025086,0.810,-1.000
5025087,0.815,-1.235
5025088,0.825,-1.455
5025089,0.815,-1.540
5025090,0.840,-1.500
5025091,0.890,-1.230
5025092,0.960,-0.930
5025093,0.970,-0.935
5025094,0.945,-1.115
5025095,0.925,-1.295
5025096,0.860,-1.305
5025097,0.870,-1.375
5025098,0.845,-1.310
5025099,0.780,-0.965
5025100,0.735,-0.535
5025101,0.650,-0.600
5025102,0.540,-0.990
5025103,0.415,-1.275
5025104,0.365,-1.475
5025105,0.315,-1.645
5025106,0.235,-1.575
5025107,0.225,-1.435
5025108,0.205,-1.290
5025109,0.175,-1.270
5025110,0.200,-1.310
5025111,0.150,-1.365
5025112,0.040,-1.390
5025113,0.000,-1.425
5025114,-0.015,-1.410
5025115,-0.025,-1.355
5025116,-0.080,-1.330
5025117,-0.110,-1.385
5025118,-0.145,-1.410
5025119,-0.190,-1.350
5025120,-0.180,-1.270
5025121,-0.205,-1.260
5025122,-0.235,-1.225
5025123,-0.270,-1.205
5025124,-0.215,-1.110
5025125,-0.110,-1.205
5025126,-0.070,-1.365
5025127,-0.150,-1.435
5025128,-0.185,-1.330
5025129,-0.180,-1.280
5025130,-0.195,-1.380
5025131,-0.235,-1.510
5025132,-0.220,-1.525
5025133,-0.170,-1.545
5025134,-0.170,-1.540
5025135,-0.140,-1.510
5025136,-0.120,-1.420
5025137,-0.130,-1.385
5025138,-0.160,-1.430
5025139,-0.215,-1.435
5025140,-0.240,-1.365
5025141,-0.250,-1.265
5025142,-0.230,-1.180
5025143,-0.230,-1.355
5025144,-0.240,-1.435
5025145,-0.230,-1.365
5025146,-0.260,-1.450
5025147,-0.260,-1.445
5025148,-0.230,-1.030
5025149,-0.220,-0.620
5025150,-0.225,-0.925
5025151,-0.225,-1.505
5025152,-0.235,-1.860
5025153,-0.210,-1.760
5025154,-0.215,-1.635
5025155,-0.240,-1.520
5025156,-0.210,-1.465
5025157,-0.190,-1.455
5025158,-0.155,-1.450
5025159,-0.125,-1.400
5025160,-0.140,-1.370
5025161,-0.175,-1.345
5025162,-0.190,-1.350
5025163,-0.225,-1.350
5025164,-0.210,-1.370
5025165,-0.195,-1.350
5025166,-0.190,-1.325
5025167,-0.200,-1.300
5025168,-0.225,-1.250
5025169,-0.240,-1.270
5025170,-0.225,-1.355
5025171,-0.240,-1.340
5025172,-0.250,-1.280
5025173,-0.275,-1.295
5025174,-0.320,-1.145
5025175,-0.320,-0.780
5025176,-0.330,-0.800
5025177,-0.400,-1.280
5025178,-0.425,-1.560
5025179,-0.470,-1.565
5025180,-0.435,-1.445
5025181,-0.430,-1.375
5025182,-0.455,-1.285
5025183,-0.375,-1.130
5025184,-0.350,-1.000
5025185,-0.365,-1.090
5025186,-0.325,-1.215
5025187,-0.320,-1.190
5025188,-0.255,-1.200
5025189,-0.245,-1.150
5025190,-0.200,-1.070
5025191,-0.185,-0.960
5025192,-0.175,-0.770
5025193,-0.125,-0.535
5025194,0.005,-0.295
5025195,-0.015,-0.040
5025196,-0.265,0.275
5025197,-0.700,0.555
5025198,-1.345,0.970
5025199,-1.915,1.290
5025200,-2.330,1.380
5025201,-2.590,1.460
5025202,-2.615,1.495
5025203,-2.530,1.455
5025204,-2.340,1.510
5025205,-2.245,1.575
5025206,-2.230,1.555
5025207,-2.065,1.530
5025208,-1.825,1.475
5025209,-1.710,1.455
5025210,-1.685,1.390
5025211,-1.605,1.230
5025212,-1.465,0.880
5025213,-1.360,0.490
5025214,-1.240,0.300
5025215,-1.140,0.220
5025216,-1.015,0.290
5025217,-0.910,0.410
5025218,-0.750,0.500
5025219,-0.580,0.600
5025220,-0.420,0.655
5025221,-0.260,0.670
5025222,-0.135,0.710
5025223,-0.060,0.695
5025224,0.020,0.675
5025225,0.060,0.660
5025226,0.065,0.690
5025227,0.120,0.670
5025228,0.170,0.635
5025229,0.165,0.650
5025230,0.165,0.680
5025231,0.225,0.675
5025232,0.255,0.675
5025233,0.265,0.715
5025234,0.260,0.665
5025235,0.260,0.660
5025236,0.280,0.690
5025237,0.300,0.700
5025238,0.335,0.735
5025239,0.400,0.760
5025240,0.360,0.775
5025241,0.370,0.795
5025242,0.440,0.840
5025243,0.495,0.770
5025244,0.540,0.740
5025245,0.540,0.810
5025246,0.565,0.880
5025247,0.600,0.950
5025248,0.720,1.005
5025249,0.720,0.995
5025250,0.675,0.980
5025251,0.715,0.970
5025252,0.720,1.000
5025253,0.710,1.035
5025254,0.670,1.100
5025255,0.720,1.070
5025256,0.730,1.045
5025257,0.700,1.070
5025258,0.695,1.110
5025259,0.645,1.095
5025260,0.610,1.195
5025261,0.570,1.220
5025262,0.545,1.220
5025263,0.540,1.275
5025264,0.490,1.355
5025265,0.430,1.510
5025266,0.385,1.850
5025267,0.310,2.170
5025268,0.215,2.205
5025269,0.185,2.190
5025270,0.130,2.195
5025271,0.080,2.245
5025272,0.095,2.230
5025273,0.065,2.170
5025274,0.045,2.090
5025275,-0.040,2.075
5025276,-0.140,2.130
5025277,-0.170,2.250
5025278,-0.155,2.240
5025279,-0.180,2.200
5025280,-0.200,2.165
5025281,-0.170,2.165
5025282,-0.160,2.185
5025283,-0.205,2.195
5025284,-0.215,2.215
5025285,-0.225,2.185
5025286,-0.195,2.140
5025287,-0.210,2.155
5025288,-0.205,2.155
5025289,-0.240,2.135
5025290,-0.245,2.085
5025291,-0.255,2.080
5025292,-0.240,2.145
5025293,-0.250,2.145
5025294,-0.270,2.150
5025295,-0.240,2.115
5025296,-0.205,2.050
5025297,-0.210,2.070
5025298,-0.220,2.025
5025299,-0.240,2.040
5025300,-0.260,2.090
5025301,-0.265,2.110
5025302,-0.310,2.120
5025303,-0.300,2.100
5025304,-0.320,2.130
5025305,-0.310,2.165
5025306,-0.315,2.150
5025307,-0.305,2.115
5025308,-0.290,2.135
5025309,-0.290,2.130
5025310,-0.270,2.080
5025311,-0.275,2.055
5025312,-0.270,2.030
5025313,-0.280,1.990
5025314,-0.275,2.000
5025315,-0.290,2.020
5025316,-0.300,2.015
5025317,-0.290,2.010
5025318,-0.295,2.000
5025319,-0.270,2.050
5025320,-0.290,2.150
5025321,-0.265,2.220
5025322,-0.275,2.200
5025323,-0.255,2.110
5025324,-0.235,2.070
5025325,-0.240,2.065
5025326,-0.260,2.095
5025327,-0.265,2.070
5025328,-0.250,2.120
5025329,-0.250,2.160
5025330,-0.265,2.150
5025331,-0.280,2.045
5025332,-0.265,2.015
5025333,-0.250,2.120
5025334,-0.220,2.135
5025335,-0.250,2.130
5025336,-0.265,2.060
5025337,-0.265,2.030
5025338,-0.275,2.070
5025339,-0.340,2.075
5025340,-0.355,2.050
5025341,-0.400,2.115
5025342,-0.380,2.160
5025343,-0.395,2.135
5025344,-0.370,2.150
5025345,-0.340,2.175
5025346,-0.350,2.150
5025347,-0.385,2.170
5025348,-0.280,2.210
5025349,-0.305,2.280
5025350,-0.310,2.350
5025351,-0.250,2.330
5025352,-0.225,2.280
5025353,-0.310,2.255
5025354,-0.360,2.275
5025355,-0.310,2.240
5025356,-0.305,2.170
5025357,-0.290,2.210
5025358,-0.350,2.240
5025359,-0.395,2.235
5025360,-0.380,2.220
5025361,-0.300,2.250
5025362,-0.270,2.300
5025363,-0.230,2.355
5025364,-0.240,2.435
5025365,-0.285,2.570
5025366,-0.250,2.915
5025367,-0.170,3.110
5025368,-0.210,3.160
5025369,-0.375,3.205
5025370,-0.765,3.215
5025371,-1.330,3.225
5025372,-1.850,3.235
5025373,-2.275,3.235
5025374,-2.535,3.225
5025375,-2.485,3.255
5025376,-2.360,3.230
5025377,-2.250,3.250
5025378,-2.160,3.245
5025379,-2.070,3.260
5025380,-1.940,3.250
5025381,-1.835,3.275
5025382,-1.785,3.275
5025383,-1.710,3.260
5025384,-1.635,3.270
5025385,-1.530,3.270
5025386,-1.490,3.275
5025387,-1.415,3.270
5025388,-1.380,3.285
5025389,-1.260,3.270
5025390,-1.145,3.265
5025391,-1.010,3.265
5025392,-0.880,3.265
5025393,-0.735,3.255
5025394,-0.590,3.285
5025395,-0.445,3.290
5025396,-0.355,3.290
5025397,-0.240,3.295
5025398,-0.205,3.270
5025399,-0.150,3.275
5025400,-0.105,3.280
5025401,-0.065,3.295
5025402,-0.075,3.270
5025403,0.015,3.295
5025404,0.045,3.285
5025405,0.045,3.310
5025406,0.080,3.310
5025407,0.125,3.310
5025408,0.155,3.300
5025409,0.190,3.305
5025410,0.195,3.295
5025411,0.200,3.315
5025412,0.215,3.310
5025413,0.270,3.310
5025414,0.270,3.325
5025415,0.300,3.315
5025416,0.300,3.320
5025417,0.310,3.300
5025418,0.325,3.320
5025419,0.340,3.315
5025420,0.355,3.330
5025421,0.425,3.325
5025422,0.420,3.320
5025423,0.390,3.315
5025424,0.425,3.315
5025425,0.470,3.310
5025426,0.490,3.285
5025427,0.445,3.295
5025428,0.475,3.295
5025429,0.545,3.320
5025430,0.505,3.295
5025431,0.490,3.315
5025432,0.495,3.305
5025433,0.510,3.320
5025434,0.500,3.325
5025435,0.465,3.330
5025436,0.390,3.330
5025437,0.370,3.340
5025438,0.360,3.320
5025439,0.270,3.340
5025440,0.215,3.335
5025441,0.175,3.370
5025442,0.170,3.350
5025443,0.170,3.335
5025444,0.175,3.345
5025445,0.075,3.355
5025446,0.085,3.360
5025447,0.015,3.345
5025448,-0.055,3.355
5025449,-0.030,3.355
5025450,-0.070,3.380
5025451,-0.095,3.365
5025452,-0.105,3.365
5025453,-0.160,3.350
5025454,-0.180,3.360
5025455,-0.120,3.370
5025456,-0.140,3.370
5025457,-0.230,3.360
5025458,-0.285,3.355
5025459,-0.310,3.355
5025460,-0.315,3.375
5025461,-0.270,3.370
5025462,-0.265,3.370
5025463,-0.290,3.360
5025464,-0.305,3.355
5025465,-0.340,3.380
5025466,-0.400,3.360
5025467,-0.425,3.380
5025468,-0.305,3.375
5025469,-0.315,3.365
5025470,-0.345,3.360
5025471,-0.300,3.375
5025472,-0.300,3.360
5025473,-0.320,3.350
5025474,-0.295,3.375
5025475,-0.295,3.360
5025476,-0.275,3.365
5025477,-0.260,3.350
5025478,-0.275,3.365
5025479,-0.275,3.350
5025480,-0.250,3.350
5025481,-0.260,3.355
5025482,-0.255,3.350
5025483,-0.240,3.365
5025484,-0.240,3.340
5025485,-0.255,3.360
5025486,-0.270,3.360
5025487,-0.260,3.365
5025488,-0.210,3.335
5025489,-0.215,3.325
5025490,-0.225,3.355
5025491,-0.220,3.345
5025492,-0.205,3.350
5025493,-0.205,3.345
5025494,-0.235,3.345
5025495,-0.230,3.350
5025496,-0.230,3.355
5025497,-0.225,3.330
5025498,-0.240,3.335
5025499,-0.210,3.335
5025500,-0.210,3.320
5025501,-0.245,3.325
5025502,-0.240,3.320
5025503,-0.210,3.315
5025504,-0.140,3.355
5025505,-0.105,3.330
5025506,-0.205,3.340
5025507,-0.425,3.335
5025508,-0.875,3.330
5025509,-1.395,3.315
5025510,-1.845,3.325
5025511,-2.255,3.325
5025512,-2.435,3.295
5025513,-2.405,3.320
5025514,-2.285,3.320
5025515,-2.210,3.325
5025516,-2.150,3.330
5025517,-2.135,3.320
5025518,-2.060,3.335
5025519,-1.945,3.340
5025520,-1.865,3.340
5025521,-1.790,3.340
5025522,-1.685,3.325
5025523,-1.550,3.315
5025524,-1.425,3.330
5025525,-1.290,3.315
5025526,-1.205,3.295
5025527,-1.070,3.275
5025528,-0.940,3.275
5025529,-0.780,3.285
5025530,-0.640,3.290
5025531,-0.465,3.300
5025532,-0.275,3.275
5025533,-0.105,3.300
5025534,0.005,3.280
5025535,0.105,3.280
5025536,0.175,3.285
5025537,0.190,3.275
5025538,0.230,3.280
5025539,0.245,3.290
5025540,0.300,3.285
5025541,0.290,3.280
5025542,0.320,3.290
5025543,0.340,3.275
5025544,0.365,3.280
5025545,0.380,3.275
5025546,0.385,3.270
5025547,0.410,3.270
5025548,0.435,3.255
5025549,0.455,3.270
5025550,0.470,3.270
5025551,0.490,3.270
5025552,0.515,3.270
5025553,0.540,3.275
5025554,0.535,3.255
5025555,0.530,3.255
5025556,0.560,3.255
5025557,0.595,3.275
5025558,0.635,3.260
5025559,0.645,3.250
5025560,0.650,3.265
5025561,0.660,3.240
5025562,0.680,3.235
5025563,0.700,3.245
5025564,0.735,3.235
5025565,0.730,3.240
5025566,0.725,3.245
5025567,0.745,3.255
5025568,0.740,3.255
5025569,0.730,3.250
5025570,0.705,3.250
5025571,0.675,3.225
5025572,0.650,3.255
5025573,0.605,3.255
5025574,0.570,3.235
5025575,0.545,3.255
5025576,0.505,3.240
5025577,0.465,3.240
5025578,0.380,3.260
5025579,0.350,3.260
5025580,0.300,3.240
5025581,0.255,3.230
5025582,0.210,3.230
5025583,0.135,3.240
5025584,0.085,3.225
5025585,0.080,3.220
5025586,0.040,3.210
5025587,0.030,3.225
5025588,0.025,3.215
5025589,0.010,3.215
5025590,0.000,3.215
5025591,-0.005,3.215
5025592,-0.015,3.215
5025593,-0.025,3.200
5025594,-0.040,3.205
5025595,-0.055,3.195
5025596,-0.045,3.190
5025597,-0.065,3.200
5025598,-0.090,3.190
5025599,-0.080,3.185
5025600,-0.070,3.195
5025601,-0.090,3.200
5025602,-0.080,3.185
5025603,-0.080,3.155
5025604,-0.070,3.175
5025605,-0.070,3.170
5025606,-0.080,3.170
5025607,-0.075,3.160
5025608,-0.055,3.160
5025609,-0.070,3.170
5025610,-0.090,3.145
5025611,-0.065,3.155
5025612,-0.050,3.155
5025613,-0.070,3.145
5025614,-0.060,3.150
5025615,-0.075,3.150
5025616,-0.075,3.160
5025617,-0.050,3.155
5025618,-0.030,3.150
5025619,-0.050,3.145
5025620,-0.065,3.135
5025621,-0.055,3.125
5025622,-0.070,3.145
5025623,-0.100,3.140
5025624,-0.095,3.120
5025625,-0.115,3.135
5025626,-0.125,3.135
5025627,-0.105,3.120
5025628,-0.120,3.135
5025629,-0.155,3.125
5025630,-0.155,3.110
5025631,-0.145,3.125
5025632,-0.125,3.120
5025633,-0.130,3.135
5025634,-0.135,3.130
5025635,-0.135,3.100
5025636,-0.120,3.095
5025637,-0.130,3.115
5025638,-0.115,3.115
5025639,-0.120,3.115
5025640,-0.120,3.105
5025641,-0.110,3.105
5025642,-0.100,3.090
5025643,-0.090,3.085
5025644,-0.095,3.095
5025645,-0.105,3.075
5025646,-0.085,3.080
5025647,-0.075,3.085
5025648,-0.080,3.075
5025649,-0.075,3.090
5025650,-0.090,3.080
5025651,-0.050,3.070
5025652,-0.065,3.050
5025653,-0.055,3.065
5025654,-0.075,3.050
5025655,-0.065,3.075
5025656,-0.030,3.075
5025657,0.015,3.075
5025658,0.075,3.060
5025659,-0.025,3.075
5025660,-0.300,3.085
5025661,-0.780,3.060
5025662,-1.335,3.065
5025663,-1.815,3.065
5025664,-2.275,3.050
5025665,-2.495,3.055
5025666,-2.465,3.060
5025667,-2.340,3.050
5025668,-2.215,3.040
5025669,-2.120,3.040
5025670,-2.030,3.050
5025671,-1.875,3.055
5025672,-1.740,3.060
5025673,-1.645,3.055
