0rder,ECG1,ECG2
0,0.185,-0.51
1,0.315,-0.495
2,0.405,-0.51
3,0.465,-0.48
4,0.515,-0.495
5,0.54,-0.48
6,0.57,-0.48
7,0.58,-0.45
8,0.605,-0.46
9,0.61,-0.445
10,0.62,-0.425
11,0.66,-0.43
12,0.64,-0.415
13,0.66,-0.405
14,0.68,-0.405
15,0.7,-0.385
16,0.725,-0.39
17,0.715,-0.375
18,0.745,-0.375
19,0.79,-0.39
20,0.8,-0.36
21,0.81,-0.37
22,0.815,-0.355
23,0.85,-0.385
24,0.85,-0.4
25,0.885,-0.39
26,0.92,-0.42
27,0.96,-0.42
28,0.98,-0.435
29,1.02,-0.435
30,1.045,-0.45
31,1.06,-0.475
32,1.1,-0.495
33,1.15,-0.485
34,1.155,-0.51
35,1.17,-0.535
36,1.205,-0.545
37,1.225,-0.535
38,1.21,-0.525
39,1.205,-0.53
40,1.21,-0.515
41,1.195,-0.48
42,1.17,-0.465
43,1.135,-0.44
44,1.095,-0.39
45,1.075,-0.355
46,1.03,-0.325
47,0.97,-0.295
48,0.925,-0.265
49,0.865,-0.24
50,0.81,-0.215
51,0.765,-0.195
52,0.72,-0.18
53,0.655,-0.18
54,0.585,-0.16
55,0.525,-0.18
56,0.47,-0.19
57,0.435,-0.19
58,0.38,-0.22
59,0.355,-0.245
60,0.285,-0.24
61,0.245,-0.23
62,0.225,-0.235
63,0.21,-0.255
64,0.185,-0.275
65,0.17,-0.26
66,0.155,-0.27
67,0.125,-0.265
68,0.12,-0.285
69,0.135,-0.29
70,0.125,-0.295
71,0.105,-0.3
72,0.135,-0.305
73,0.1,-0.3
74,0.115,-0.295
75,0.115,-0.315
76,0.095,-0.33
77,0.105,-0.32
78,0.085,-0.305
79,0.08,-0.335
80,0.095,-0.33
81,0.09,-0.34
82,0.1,-0.345
83,0.115,-0.36
84,0.095,-0.355
85,0.11,-0.36
86,0.115,-0.34
87,0.13,-0.37
88,0.13,-0.36
89,0.11,-0.38
90,0.15,-0.385
91,0.135,-0.375
92,0.155,-0.385
93,0.15,-0.39
94,0.135,-0.395
95,0.165,-0.395
96,0.125,-0.41
97,0.115,-0.425
98,0.115,-0.41
99,0.135,-0.41
100,0.14,-0.405
101,0.12,-0.4
102,0.11,-0.405
103,0.12,-0.425
104,0.115,-0.42
105,0.115,-0.4
106,0.13,-0.4
107,0.12,-0.385
108,0.13,-0.4
109,0.105,-0.385
110,0.13,-0.4
111,0.115,-0.37
112,0.105,-0.395
113,0.11,-0.385
114,0.1,-0.365
115,0.095,-0.355
116,0.095,-0.37
117,0.095,-0.36
118,0.095,-0.37
119,0.085,-0.4
120,0.08,-0.37
121,0.07,-0.36
122,0.09,-0.365
123,0.07,-0.37
124,0.085,-0.38
125,0.08,-0.365
126,0.085,-0.355
127,0.095,-0.35
128,0.075,-0.365
129,0.075,-0.365
130,0.11,-0.345
131,0.06,-0.345
132,0.07,-0.355
133,0.08,-0.36
134,0.09,-0.345
135,0.075,-0.355
136,0.07,-0.35
137,0.05,-0.345
138,0.06,-0.325
139,0.05,-0.355
140,0.05,-0.35
141,0.055,-0.355
142,0.045,-0.34
143,0.055,-0.365
144,0.06,-0.365
145,0.04,-0.36
146,0.075,-0.34
147,0.055,-0.34
148,0.055,-0.35
149,0.05,-0.35
150,0.045,-0.335
151,0.075,-0.35
152,0.045,-0.345
153,0.03,-0.33
154,0.055,-0.335
155,0.06,-0.36
156,0.05,-0.36
157,0.055,-0.35
158,0.035,-0.345
159,0.07,-0.345
160,0.03,-0.34
161,0.065,-0.29
162,0.06,-0.245
163,0.06,-0.24
164,0.07,-0.245
165,0.105,-0.215
166,0.135,-0.17
167,0.15,-0.165
168,0.175,-0.16
169,0.21,-0.135
170,0.24,-0.12
171,0.23,-0.185
172,0.22,-0.22
173,0.205,-0.235
174,0.175,-0.23
175,0.15,-0.265
176,0.1,-0.29
177,0.07,-0.3
178,0.06,-0.32
179,0.04,-0.315
180,0.005,-0.34
181,-0.015,-0.38
182,-0.005,-0.42
183,0,-0.4
184,0.04,-0.41
185,0.02,-0.425
186,0.015,-0.4
187,0.005,-0.42
188,0,-0.415
189,0,-0.41
190,0,-0.4
191,0.02,-0.405
192,-0.035,-0.415
193,-0.005,-0.415
194,0,-0.405
195,0,-0.4
196,0.01,-0.39
197,0.01,-0.425
198,0.005,-0.425
199,0,-0.4
200,-0.005,-0.4
201,0,-0.395
202,0.03,-0.4
203,0.005,-0.41
204,0.015,-0.35
205,0.005,-0.335
206,0.01,-0.2
207,0.02,-0.03
208,0.06,0.215
209,0.155,0.595
210,0.19,0.975
211,0.015,1.235
212,-0.305,1.395
213,-0.785,1.525
214,-1.465,1.71
215,-2.155,1.905
216,-2.62,1.91
217,-2.84,1.795
218,-2.845,1.635
219,-2.715,1.42
220,-2.535,1.21
221,-2.375,0.99
222,-2.3,0.85
223,-2.16,0.77
224,-2.005,0.82
225,-1.885,1.04
226,-1.735,1.305
227,-1.615,1.41
228,-1.475,1.16
229,-1.3,0.63
230,-1.19,0.075
231,-1.055,-0.32
232,-0.92,-0.565
233,-0.745,-0.67
234,-0.58,-0.685
235,-0.44,-0.685
236,-0.24,-0.635
237,-0.055,-0.59
238,0.105,-0.575
239,0.235,-0.555
240,0.35,-0.54
241,0.44,-0.555
242,0.47,-0.545
243,0.495,-0.52
244,0.51,-0.54
245,0.525,-0.5
246,0.545,-0.495
247,0.555,-0.485
248,0.575,-0.48
249,0.58,-0.485
250,0.585,-0.47
251,0.59,-0.44
252,0.59,-0.42
253,0.605,-0.405
254,0.605,-0.395
255,0.635,-0.4
256,0.645,-0.39
257,0.645,-0.39
258,0.645,-0.385
259,0.68,-0.365
260,0.7,-0.405
261,0.705,-0.405
262,0.745,-0.4
263,0.755,-0.425
264,0.79,-0.395
265,0.82,-0.425
266,0.81,-0.44
267,0.865,-0.465
268,0.875,-0.48
269,0.895,-0.5
270,0.94,-0.5
271,0.98,-0.525
272,1,-0.525
273,1,-0.53
274,1,-0.54
275,1.03,-0.55
276,1.055,-0.53
277,1.065,-0.525
278,1.075,-0.535
279,1.075,-0.5
280,1.04,-0.49
281,1.025,-0.465
282,1.02,-0.435
283,0.995,-0.385
284,0.935,-0.34
285,0.94,-0.33
286,0.875,-0.315
287,0.85,-0.265
288,0.79,-0.25
289,0.735,-0.225
290,0.68,-0.215
291,0.625,-0.215
292,0.59,-0.195
293,0.545,-0.2
294,0.475,-0.225
295,0.445,-0.24
296,0.41,-0.25
297,0.35,-0.25
298,0.315,-0.24
299,0.275,-0.28
300,0.245,-0.28
301,0.19,-0.27
302,0.205,-0.28
303,0.185,-0.3
304,0.17,-0.305
305,0.15,-0.29
306,0.14,-0.315
307,0.135,-0.315
308,0.125,-0.31
309,0.105,-0.305
310,0.11,-0.315
311,0.11,-0.35
312,0.105,-0.35
313,0.1,-0.34
314,0.115,-0.365
315,0.095,-0.385
316,0.12,-0.375
317,0.115,-0.39
318,0.115,-0.37
319,0.12,-0.385
320,0.13,-0.37
321,0.11,-0.385
322,0.105,-0.4
323,0.105,-0.395
324,0.11,-0.415
325,0.125,-0.42
326,0.135,-0.41
327,0.125,-0.41
328,0.15,-0.42
329,0.115,-0.43
330,0.105,-0.41
331,0.11,-0.425
332,0.12,-0.44
333,0.12,-0.42
334,0.1,-0.445
335,0.105,-0.445
336,0.1,-0.445
337,0.115,-0.43
338,0.11,-0.415
339,0.105,-0.4
340,0.105,-0.435
341,0.105,-0.405
342,0.095,-0.41
343,0.085,-0.41
344,0.085,-0.405
345,0.095,-0.425
346,0.065,-0.425
347,0.075,-0.415
348,0.095,-0.425
349,0.07,-0.4
350,0.05,-0.405
351,0.06,-0.425
352,0.06,-0.385
353,0.045,-0.425
354,0.045,-0.415
355,0.045,-0.4
356,0.05,-0.39
357,0.05,-0.41
358,0.06,-0.4
359,0.055,-0.395
360,0.035,-0.41
361,0.06,-0.4
362,0.055,-0.38
363,0.055,-0.375
364,0.055,-0.4
365,0.05,-0.4
366,0.035,-0.39
367,0.04,-0.385
368,0.05,-0.41
369,0.06,-0.395
370,0.065,-0.37
371,0.03,-0.37
372,0.035,-0.375
373,0.06,-0.395
374,0.05,-0.38
375,0.045,-0.37
376,0.06,-0.36
377,0.06,-0.4
378,0.05,-0.385
379,0.06,-0.37
380,0.045,-0.39
381,0.055,-0.385
382,0.055,-0.37
383,0.05,-0.375
384,0.03,-0.38
385,0.04,-0.37
386,0.055,-0.365
387,0.035,-0.375
388,0.055,-0.365
389,0.05,-0.34
390,0.03,-0.3
391,0.04,-0.255
392,0.055,-0.28
393,0.085,-0.25
394,0.105,-0.21
395,0.14,-0.175
396,0.165,-0.19
397,0.19,-0.18
398,0.195,-0.185
399,0.19,-0.195
400,0.19,-0.235
401,0.19,-0.29
402,0.145,-0.265
403,0.12,-0.26
404,0.1,-0.31
405,0.085,-0.335
406,0.075,-0.34
407,0.045,-0.355
408,0.02,-0.36
409,0,-0.395
410,-0.01,-0.45
411,0.02,-0.42
412,0.005,-0.43
413,-0.005,-0.425
414,0.01,-0.43
415,-0.015,-0.445
416,0,-0.435
417,0.01,-0.45
418,0,-0.445
419,0,-0.46
420,-0.01,-0.44
421,-0.01,-0.455
422,-0.025,-0.455
423,0.01,-0.42
424,0.015,-0.42
425,-0.005,-0.44
426,0,-0.465
427,0,-0.43
428,0.025,-0.43
429,0.01,-0.445
430,-0.005,-0.45
431,0,-0.425
432,0,-0.395
433,0.01,-0.375
434,0.015,-0.3
435,0,-0.15
436,0.04,0.055
437,0.105,0.37
438,0.205,0.785
439,0.135,1.13
440,-0.13,1.33
441,-0.55,1.52
442,-1.245,1.72
443,-1.945,1.9
444,-2.495,1.92
445,-2.74,1.835
446,-2.79,1.695
447,-2.67,1.535
448,-2.515,1.335
449,-2.335,1.17
450,-2.205,1.035
451,-2.12,0.885
452,-1.92,0.905
453,-1.8,1.045
454,-1.685,1.32
455,-1.565,1.575
456,-1.46,1.515
457,-1.315,1.1
458,-1.195,0.49
459,-1.08,-0.05
460,-0.94,-0.415
461,-0.815,-0.59
462,-0.66,-0.64
463,-0.475,-0.68
464,-0.29,-0.675
465,-0.1,-0.655
466,0.055,-0.62
467,0.185,-0.61
468,0.32,-0.595
469,0.41,-0.6
470,0.455,-0.595
471,0.5,-0.595
472,0.53,-0.55
473,0.53,-0.545
474,0.54,-0.535
475,0.57,-0.55
476,0.61,-0.53
477,0.59,-0.52
478,0.625,-0.52
479,0.62,-0.53
480,0.635,-0.48
481,0.635,-0.48
482,0.665,-0.49
483,0.685,-0.495
484,0.685,-0.495
485,0.69,-0.47
486,0.71,-0.48
487,0.715,-0.48
488,0.735,-0.475
489,0.745,-0.48
490,0.76,-0.5
491,0.795,-0.515
492,0.815,-0.525
493,0.855,-0.53
494,0.865,-0.56
495,0.88,-0.59
496,0.9,-0.58
497,0.95,-0.61
498,0.945,-0.635
499,0.99,-0.65
500,1,-0.66
501,1.025,-0.67
502,1.04,-0.69
503,1.04,-0.705
504,1.055,-0.685
505,1.06,-0.69
506,1.09,-0.67
507,1.06,-0.66
508,1.055,-0.625
509,1.035,-0.56
510,1.03,-0.555
511,0.995,-0.51
512,0.94,-0.465
513,0.91,-0.415
514,0.875,-0.39
515,0.83,-0.36
516,0.78,-0.325
517,0.725,-0.295
518,0.67,-0.315
519,0.615,-0.275
520,0.565,-0.27
521,0.535,-0.28
522,0.455,-0.285
523,0.42,-0.3
524,0.38,-0.29
525,0.355,-0.305
526,0.315,-0.305
527,0.275,-0.31
528,0.26,-0.33
529,0.245,-0.345
530,0.215,-0.35
531,0.205,-0.335
532,0.2,-0.34
533,0.195,-0.36
534,0.21,-0.365
535,0.195,-0.345
536,0.165,-0.35
537,0.18,-0.355
538,0.18,-0.355
539,0.175,-0.38
540,0.18,-0.375
541,0.175,-0.385
542,0.17,-0.39
543,0.175,-0.395
544,0.17,-0.395
545,0.18,-0.395
546,0.17,-0.44
547,0.18,-0.44
548,0.19,-0.415
549,0.19,-0.4
550,0.18,-0.43
551,0.2,-0.42
552,0.195,-0.42
553,0.21,-0.43
554,0.195,-0.445
555,0.205,-0.445
556,0.19,-0.425
557,0.18,-0.44
558,0.18,-0.445
559,0.19,-0.45
560,0.18,-0.425
561,0.19,-0.43
562,0.205,-0.445
563,0.165,-0.445
564,0.195,-0.44
565,0.18,-0.425
566,0.16,-0.455
567,0.145,-0.445
568,0.16,-0.415
569,0.145,-0.435
570,0.165,-0.435
571,0.17,-0.425
572,0.145,-0.415
573,0.155,-0.43
574,0.14,-0.435
575,0.115,-0.415
576,0.135,-0.41
577,0.13,-0.415
578,0.145,-0.42
579,0.135,-0.4
580,0.145,-0.395
581,0.155,-0.41
582,0.14,-0.41
583,0.125,-0.41
584,0.13,-0.395
585,0.135,-0.4
586,0.135,-0.39
587,0.14,-0.41
588,0.125,-0.395
589,0.155,-0.395
590,0.15,-0.4
591,0.125,-0.38
592,0.13,-0.375
593,0.12,-0.375
594,0.115,-0.39
595,0.135,-0.395
596,0.13,-0.385
597,0.12,-0.38
598,0.09,-0.395
599,0.095,-0.355
600,0.11,-0.365
601,0.125,-0.335
602,0.13,-0.295
603,0.11,-0.255
604,0.135,-0.24
605,0.175,-0.225
606,0.2,-0.19
607,0.23,-0.185
608,0.265,-0.15
609,0.285,-0.155
610,0.31,-0.175
611,0.3,-0.19
612,0.28,-0.23
613,0.26,-0.255
614,0.205,-0.25
615,0.18,-0.275
616,0.155,-0.305
617,0.17,-0.295
618,0.13,-0.295
619,0.1,-0.335
620,0.055,-0.39
621,0.075,-0.425
622,0.07,-0.425
623,0.075,-0.42
624,0.055,-0.435
625,0.07,-0.455
626,0.06,-0.445
627,0.045,-0.43
628,0.05,-0.435
629,0.07,-0.43
630,0.055,-0.44
631,0.035,-0.43
632,0.055,-0.44
633,0.07,-0.43
634,0.06,-0.43
635,0.055,-0.44
636,0.06,-0.435
637,0.05,-0.435
638,0.05,-0.44
639,0.065,-0.435
640,0.075,-0.435
641,0.065,-0.435
642,0.055,-0.41
643,0.035,-0.38
644,0.06,-0.325
645,0.055,-0.17
646,0.07,0.035
647,0.15,0.325
648,0.22,0.68
649,0.14,0.93
650,-0.185,1.125
651,-0.69,1.365
652,-1.46,1.63
653,-2.16,1.79
654,-2.625,1.775
655,-2.8,1.68
656,-2.765,1.57
657,-2.65,1.355
658,-2.51,1.165
659,-2.37,0.995
660,-2.27,0.825
661,-2.095,0.795
662,-1.945,0.91
663,-1.845,1.2
664,-1.725,1.45
665,-1.585,1.35
666,-1.41,0.89
667,-1.28,0.215
668,-1.17,-0.335
669,-1.035,-0.605
670,-0.855,-0.695
671,-0.685,-0.685
672,-0.49,-0.67
673,-0.3,-0.66
674,-0.08,-0.625
675,0.1,-0.595
676,0.295,-0.58
677,0.395,-0.575
678,0.465,-0.575
679,0.51,-0.56
680,0.56,-0.555
681,0.595,-0.55
682,0.615,-0.535
683,0.61,-0.525
684,0.625,-0.51
685,0.65,-0.51
686,0.68,-0.515
687,0.67,-0.51
688,0.67,-0.495
689,0.695,-0.495
690,0.715,-0.49
691,0.71,-0.495
692,0.73,-0.49
693,0.75,-0.475
694,0.755,-0.495
695,0.79,-0.495
696,0.795,-0.505
697,0.835,-0.5
698,0.83,-0.51
699,0.86,-0.515
700,0.88,-0.54
701,0.91,-0.535
702,0.915,-0.555
703,0.95,-0.585
704,0.955,-0.58
705,1,-0.585
706,1.02,-0.605
707,1.065,-0.63
708,1.09,-0.65
709,1.105,-0.665
710,1.125,-0.665
711,1.13,-0.685
712,1.145,-0.67
713,1.135,-0.655
714,1.14,-0.665
715,1.115,-0.645
716,1.115,-0.63
717,1.105,-0.59
718,1.065,-0.58
719,1.03,-0.535
720,0.99,-0.505
721,0.97,-0.465
722,0.91,-0.42
723,0.875,-0.405
724,0.835,-0.37
725,0.79,-0.32
726,0.725,-0.32
727,0.67,-0.32
728,0.63,-0.32
729,0.56,-0.305
730,0.515,-0.315
731,0.45,-0.325
732,0.41,-0.32
733,0.365,-0.345
734,0.325,-0.35
735,0.285,-0.34
736,0.26,-0.365
737,0.235,-0.375
738,0.23,-0.38
739,0.2,-0.39
740,0.195,-0.4
741,0.19,-0.4
742,0.175,-0.395
743,0.175,-0.395
744,0.155,-0.4
745,0.17,-0.4
746,0.16,-0.43
747,0.16,-0.43
748,0.175,-0.44
749,0.17,-0.425
750,0.135,-0.445
751,0.14,-0.445
752,0.155,-0.44
753,0.175,-0.45
754,0.165,-0.45
755,0.155,-0.46
756,0.165,-0.45
757,0.185,-0.445
758,0.165,-0.45
759,0.16,-0.475
760,0.165,-0.47
761,0.15,-0.45
762,0.155,-0.475
763,0.18,-0.48
764,0.18,-0.46
765,0.2,-0.44
766,0.19,-0.47
767,0.175,-0.465
768,0.2,-0.44
769,0.185,-0.435
770,0.155,-0.475
771,0.175,-0.47
772,0.145,-0.435
773,0.16,-0.44
774,0.17,-0.455
775,0.165,-0.46
776,0.165,-0.43
777,0.165,-0.43
778,0.15,-0.45
779,0.145,-0.44
780,0.17,-0.42
781,0.16,-0.43
782,0.16,-0.415
783,0.135,-0.43
784,0.16,-0.43
785,0.15,-0.405
786,0.145,-0.42
787,0.15,-0.415
788,0.14,-0.41
789,0.145,-0.405
790,0.13,-0.41
791,0.13,-0.415
792,0.13,-0.395
793,0.16,-0.415
794,0.145,-0.405
795,0.14,-0.405
796,0.14,-0.415
797,0.12,-0.4
798,0.14,-0.405
799,0.115,-0.42
800,0.115,-0.41
801,0.11,-0.405
802,0.135,-0.4
803,0.13,-0.4
804,0.12,-0.38
805,0.12,-0.36
806,0.125,-0.33
807,0.125,-0.295
808,0.14,-0.265
809,0.15,-0.255
810,0.2,-0.22
811,0.215,-0.205
812,0.26,-0.195
813,0.265,-0.175
814,0.275,-0.16
815,0.3,-0.17
816,0.28,-0.215
817,0.275,-0.26
818,0.225,-0.275
819,0.205,-0.26
820,0.165,-0.28
821,0.135,-0.3
822,0.155,-0.335
823,0.12,-0.34
824,0.065,-0.345
825,0.055,-0.405
826,0.075,-0.445
827,0.075,-0.46
828,0.075,-0.44
829,0.08,-0.45
830,0.065,-0.455
831,0.04,-0.455
832,0.06,-0.45
833,0.055,-0.45
834,0.06,-0.46
835,0.055,-0.46
836,0.07,-0.455
837,0.04,-0.45
838,0.055,-0.435
839,0.065,-0.465
840,0.07,-0.455
841,0.06,-0.455
842,0.09,-0.455
843,0.08,-0.43
844,0.075,-0.455
845,0.065,-0.44
846,0.075,-0.43
847,0.07,-0.445
848,0.07,-0.42
849,0.065,-0.41
850,0.075,-0.365
851,0.045,-0.29
852,0.06,-0.145
853,0.075,0.04
854,0.195,0.33
855,0.255,0.635
856,0.18,0.92
857,-0.13,1.075
858,-0.57,1.26
859,-1.32,1.47
860,-2,1.66
861,-2.55,1.695
862,-2.815,1.605
863,-2.845,1.48
864,-2.765,1.3
865,-2.64,1.1
866,-2.505,0.925
867,-2.42,0.72
868,-2.275,0.605
869,-2.085,0.615
870,-1.96,0.83
871,-1.83,1.07
872,-1.715,1.215
873,-1.555,0.985
874,-1.405,0.5
875,-1.275,-0.1
876,-1.145,-0.535
877,-1,-0.69
878,-0.83,-0.735
879,-0.655,-0.7
880,-0.485,-0.685
881,-0.285,-0.67
882,-0.075,-0.63
883,0.105,-0.6
884,0.295,-0.58
885,0.385,-0.575
886,0.485,-0.585
887,0.54,-0.565
888,0.57,-0.565
889,0.59,-0.53
890,0.625,-0.5
891,0.64,-0.515
892,0.635,-0.51
893,0.665,-0.505
894,0.68,-0.505
895,0.695,-0.5
896,0.695,-0.495
897,0.685,-0.48
898,0.715,-0.485
899,0.73,-0.46
900,0.745,-0.47
901,0.74,-0.45
902,0.77,-0.43
903,0.8,-0.46
904,0.81,-0.475
905,0.82,-0.46
906,0.83,-0.45
907,0.855,-0.47
908,0.88,-0.475
909,0.88,-0.475
910,0.925,-0.505
911,0.935,-0.54
912,0.955,-0.535
913,0.98,-0.575
914,1.015,-0.575
915,1.055,-0.595
916,1.055,-0.6
917,1.09,-0.6
918,1.105,-0.615
919,1.125,-0.625
920,1.125,-0.645
921,1.135,-0.64
922,1.12,-0.655
923,1.13,-0.62
924,1.11,-0.595
925,1.105,-0.57
926,1.075,-0.545
927,1.03,-0.525
928,1.015,-0.5
929,0.975,-0.47
930,0.92,-0.425
931,0.885,-0.39
932,0.83,-0.38
933,0.775,-0.365
934,0.73,-0.345
935,0.67,-0.32
936,0.605,-0.32
937,0.565,-0.34
938,0.5,-0.335
939,0.44,-0.34
940,0.395,-0.36
941,0.365,-0.36
942,0.29,-0.36
943,0.285,-0.38
944,0.26,-0.41
945,0.225,-0.4
946,0.185,-0.4
947,0.19,-0.415
948,0.185,-0.42
949,0.155,-0.42
950,0.15,-0.415
951,0.14,-0.43
952,0.13,-0.445
953,0.13,-0.44
954,0.14,-0.435
955,0.12,-0.44
956,0.105,-0.425
957,0.115,-0.44
958,0.115,-0.465
959,0.12,-0.445
960,0.105,-0.465
961,0.1,-0.465
962,0.13,-0.48
963,0.12,-0.485
964,0.115,-0.475
965,0.12,-0.505
966,0.14,-0.475
967,0.125,-0.495
968,0.115,-0.495
969,0.135,-0.52
970,0.14,-0.535
971,0.14,-0.52
972,0.14,-0.53
973,0.135,-0.51
974,0.145,-0.51
975,0.125,-0.525
976,0.14,-0.525
977,0.13,-0.51
978,0.13,-0.52
979,0.15,-0.515
980,0.16,-0.505
981,0.15,-0.525
982,0.145,-0.515
983,0.13,-0.505
984,0.14,-0.495
985,0.13,-0.5
986,0.145,-0.52
987,0.135,-0.485
988,0.125,-0.5
989,0.105,-0.5
990,0.095,-0.495
991,0.1,-0.49
992,0.09,-0.515
993,0.1,-0.51
994,0.095,-0.5
995,0.11,-0.5
996,0.105,-0.49
997,0.115,-0.5
998,0.115,-0.495
999,0.1,-0.5
1000,0.085,-0.505
1001,0.08,-0.505
1002,0.075,-0.485
1003,0.085,-0.495
1004,0.08,-0.49
1005,0.075,-0.5
1006,0.1,-0.48
1007,0.09,-0.47
1008,0.08,-0.48
1009,0.07,-0.485
1010,0.08,-0.48
1011,0.1,-0.48
1012,0.095,-0.475
1013,0.085,-0.47
1014,0.095,-0.465
1015,0.095,-0.445
1016,0.085,-0.43
1017,0.095,-0.385
1018,0.095,-0.36
1019,0.115,-0.35
1020,0.14,-0.32
1021,0.155,-0.295
1022,0.2,-0.27
1023,0.21,-0.24
1024,0.25,-0.25
1025,0.295,-0.255
1026,0.285,-0.32
1027,0.275,-0.35
1028,0.205,-0.345
1029,0.175,-0.32
1030,0.15,-0.365
1031,0.15,-0.39
1032,0.12,-0.41
1033,0.085,-0.43
1034,0.06,-0.41
1035,0.045,-0.45
1036,0.06,-0.495
1037,0.065,-0.505
1038,0.075,-0.515
1039,0.085,-0.495
1040,0.04,-0.515
1041,0.055,-0.52
1042,0.05,-0.52
1043,0.055,-0.485
1044,0.045,-0.495
1045,0.05,-0.48
1046,0.035,-0.505
1047,0.065,-0.505
1048,0.05,-0.48
1049,0.07,-0.505
1050,0.065,-0.505
1051,0.06,-0.5
1052,0.065,-0.49
1053,0.05,-0.495
1054,0.04,-0.51
1055,0.05,-0.48
1056,0.065,-0.475
1057,0.055,-0.46
1058,0.065,-0.48
1059,0.065,-0.43
1060,0.055,-0.425
1061,0.045,-0.335
1062,0.075,-0.185
1063,0.12,0.05
1064,0.17,0.35
1065,0.255,0.72
1066,0.185,1.025
1067,-0.07,1.25
1068,-0.46,1.425
1069,-1.07,1.595
1070,-1.78,1.85
1071,-2.31,1.945
1072,-2.655,1.895
1073,-2.8,1.775
1074,-2.71,1.59
1075,-2.59,1.325
1076,-2.38,1.135
1077,-2.26,0.96
1078,-2.18,0.805
1079,-2.02,0.74
1080,-1.85,0.865
1081,-1.77,1.1
1082,-1.655,1.345
1083,-1.52,1.41
1084,-1.37,1.165
1085,-1.25,0.625
1086,-1.12,0.055
1087,-0.98,-0.34
1088,-0.845,-0.575
1089,-0.71,-0.665
1090,-0.52,-0.725
1091,-0.355,-0.745
1092,-0.15,-0.715
1093,0.02,-0.66
1094,0.155,-0.65
1095,0.315,-0.64
1096,0.42,-0.64
1097,0.49,-0.605
1098,0.53,-0.6
1099,0.57,-0.61
1100,0.58,-0.61
1101,0.595,-0.6
1102,0.64,-0.575
1103,0.63,-0.575
1104,0.67,-0.6
1105,0.67,-0.555
1106,0.665,-0.565
1107,0.685,-0.545
1108,0.69,-0.54
1109,0.7,-0.525
1110,0.695,-0.53
1111,0.73,-0.505
1112,0.74,-0.51
1113,0.745,-0.49
1114,0.765,-0.475
1115,0.77,-0.515
1116,0.79,-0.52
1117,0.81,-0.515
1118,0.805,-0.5
1119,0.835,-0.525
1120,0.855,-0.525
1121,0.885,-0.54
1122,0.92,-0.565
1123,0.905,-0.58
1124,0.945,-0.57
1125,0.98,-0.58
1126,1.01,-0.595
1127,1.03,-0.62
1128,1.035,-0.655
1129,1.065,-0.65
1130,1.075,-0.64
1131,1.095,-0.64
1132,1.12,-0.65
1133,1.09,-0.62
1134,1.105,-0.63
1135,1.115,-0.605
1136,1.085,-0.575
1137,1.04,-0.525
1138,1.035,-0.51
1139,0.99,-0.47
1140,0.94,-0.42
1141,0.89,-0.38
1142,0.845,-0.365
1143,0.79,-0.36
1144,0.76,-0.355
1145,0.685,-0.32
1146,0.63,-0.31
1147,0.585,-0.315
1148,0.515,-0.335
1149,0.475,-0.33
1150,0.45,-0.335
1151,0.385,-0.36
1152,0.335,-0.375
1153,0.285,-0.365
1154,0.26,-0.375
1155,0.24,-0.395
1156,0.225,-0.38
1157,0.205,-0.41
1158,0.2,-0.4
1159,0.185,-0.43
1160,0.155,-0.425
1161,0.165,-0.435
1162,0.125,-0.445
1163,0.13,-0.42
1164,0.14,-0.435
1165,0.15,-0.45
1166,0.145,-0.44
1167,0.11,-0.455
1168,0.115,-0.465
1169,0.125,-0.465
1170,0.125,-0.47
1171,0.135,-0.49
1172,0.14,-0.48
1173,0.14,-0.465
1174,0.13,-0.475
1175,0.14,-0.5
1176,0.145,-0.495
1177,0.15,-0.49
1178,0.145,-0.5
1179,0.135,-0.515
1180,0.145,-0.52
1181,0.13,-0.535
1182,0.125,-0.51
1183,0.13,-0.51
1184,0.13,-0.525
1185,0.12,-0.51
1186,0.095,-0.51
1187,0.13,-0.52
1188,0.115,-0.53
1189,0.135,-0.5
1190,0.13,-0.515
1191,0.14,-0.52
1192,0.125,-0.52
1193,0.125,-0.53
1194,0.12,-0.51
1195,0.125,-0.52
1196,0.12,-0.53
1197,0.105,-0.525
1198,0.1,-0.52
1199,0.115,-0.525
1200,0.085,-0.515
1201,0.08,-0.515
1202,0.09,-0.52
1203,0.11,-0.495
1204,0.085,-0.515
1205,0.085,-0.51
1206,0.095,-0.5
1207,0.07,-0.48
1208,0.085,-0.495
1209,0.095,-0.5
1210,0.075,-0.515
1211,0.08,-0.505
1212,0.055,-0.48
1213,0.075,-0.49
1214,0.085,-0.485
1215,0.075,-0.485
1216,0.07,-0.475
1217,0.065,-0.495
1218,0.065,-0.5
1219,0.035,-0.48
1220,0.06,-0.475
1221,0.085,-0.48
1222,0.085,-0.495
1223,0.06,-0.47
1224,0.07,-0.465
1225,0.08,-0.445
1226,0.075,-0.415
1227,0.08,-0.4
1228,0.07,-0.375
1229,0.09,-0.355
1230,0.115,-0.34
1231,0.13,-0.29
1232,0.15,-0.265
1233,0.18,-0.24
1234,0.225,-0.255
1235,0.24,-0.26
1236,0.23,-0.29
1237,0.235,-0.32
1238,0.215,-0.355
1239,0.175,-0.34
1240,0.135,-0.355
1241,0.125,-0.39
1242,0.105,-0.405
1243,0.11,-0.445
1244,0.06,-0.43
1245,0.05,-0.455
1246,0.035,-0.52
1247,0.02,-0.535
1248,0.035,-0.54
1249,0.025,-0.54
1250,0.025,-0.56
1251,0.04,-0.53
1252,0.025,-0.53
1253,0.015,-0.545
1254,0.03,-0.545
1255,0.02,-0.55
1256,0.03,-0.545
1257,0.015,-0.545
1258,0.02,-0.52
1259,0.02,-0.54
1260,0,-0.56
1261,-0.005,-0.53
1262,0.015,-0.545
1263,0,-0.55
1264,-0.01,-0.545
1265,0,-0.525
1266,0,-0.53
1267,0.015,-0.525
1268,-0.01,-0.535
1269,0,-0.51
1270,0,-0.49
1271,0.01,-0.46
1272,0.01,-0.37
1273,0.025,-0.17
1274,0.035,0.07
1275,0.135,0.44
1276,0.205,0.85
1277,0.095,1.16
1278,-0.22,1.41
1279,-0.66,1.605
1280,-1.345,1.825
1281,-2.04,2.03
1282,-2.535,2.07
1283,-2.77,1.985
1284,-2.825,1.85
1285,-2.715,1.7
1286,-2.585,1.475
1287,-2.415,1.275
1288,-2.275,1.15
1289,-2.16,1.01
1290,-1.99,0.94
1291,-1.835,1.06
1292,-1.735,1.31
1293,-1.615,1.585
1294,-1.485,1.58
1295,-1.36,1.21
1296,-1.195,0.63
1297,-1.085,0.09
1298,-0.955,-0.335
1299,-0.795,-0.6
1300,-0.625,-0.685
1301,-0.44,-0.73
1302,-0.25,-0.75
1303,-0.075,-0.74
1304,0.1,-0.71
1305,0.255,-0.685
1306,0.37,-0.665
1307,0.43,-0.69
1308,0.525,-0.675
1309,0.55,-0.69
1310,0.56,-0.68
1311,0.57,-0.67
1312,0.625,-0.65
1313,0.66,-0.65
1314,0.67,-0.625
1315,0.655,-0.62
1316,0.665,-0.61
1317,0.67,-0.585
1318,0.7,-0.595
1319,0.69,-0.58
1320,0.715,-0.575
1321,0.73,-0.6
1322,0.73,-0.59
1323,0.735,-0.585
1324,0.745,-0.58
1325,0.775,-0.585
1326,0.785,-0.575
1327,0.8,-0.585
1328,0.81,-0.59
1329,0.83,-0.595
1330,0.87,-0.605
1331,0.87,-0.615
1332,0.9,-0.635
1333,0.92,-0.655
1334,0.93,-0.655
1335,0.965,-0.665
1336,0.995,-0.695
1337,1.04,-0.715
1338,1.055,-0.71
1339,1.045,-0.73
1340,1.07,-0.745
1341,1.09,-0.755
1342,1.105,-0.765
1343,1.125,-0.73
1344,1.125,-0.735
1345,1.13,-0.725
1346,1.105,-0.71
1347,1.115,-0.675
1348,1.075,-0.665
1349,1.05,-0.625
1350,1.035,-0.59
1351,1.01,-0.525
1352,0.955,-0.495
1353,0.92,-0.465
1354,0.875,-0.435
1355,0.845,-0.41
1356,0.8,-0.38
1357,0.725,-0.37
1358,0.67,-0.355
1359,0.625,-0.355
1360,0.575,-0.34
1361,0.52,-0.36
1362,0.46,-0.38
1363,0.41,-0.39
1364,0.365,-0.385
1365,0.345,-0.385
1366,0.3,-0.405
1367,0.29,-0.39
1368,0.285,-0.395
1369,0.26,-0.41
1370,0.24,-0.405
1371,0.225,-0.415
1372,0.21,-0.43
1373,0.185,-0.42
1374,0.175,-0.43
1375,0.19,-0.435
1376,0.195,-0.435
1377,0.19,-0.44
1378,0.165,-0.44
1379,0.2,-0.47
1380,0.17,-0.46
1381,0.185,-0.455
1382,0.17,-0.48
1383,0.185,-0.48
1384,0.205,-0.48
1385,0.205,-0.485
1386,0.19,-0.49
1387,0.19,-0.49
1388,0.195,-0.505
1389,0.22,-0.5
1390,0.205,-0.51
1391,0.19,-0.505
1392,0.185,-0.5
1393,0.205,-0.495
1394,0.215,-0.495
1395,0.205,-0.51
1396,0.225,-0.495
1397,0.19,-0.495
1398,0.205,-0.51
1399,0.205,-0.5
1400,0.215,-0.515
1401,0.205,-0.51
1402,0.2,-0.51
1403,0.185,-0.51
1404,0.2,-0.505
1405,0.17,-0.51
1406,0.2,-0.51
1407,0.19,-0.505
1408,0.205,-0.49
1409,0.19,-0.485
1410,0.185,-0.505
1411,0.16,-0.505
1412,0.17,-0.485
1413,0.175,-0.5
1414,0.17,-0.5
1415,0.155,-0.52
1416,0.15,-0.51
1417,0.155,-0.49
1418,0.155,-0.515
1419,0.13,-0.505
1420,0.18,-0.475
1421,0.135,-0.47
1422,0.145,-0.47
1423,0.13,-0.495
1424,0.125,-0.495
1425,0.125,-0.46
1426,0.15,-0.47
1427,0.14,-0.475
1428,0.14,-0.45
1429,0.14,-0.465
1430,0.12,-0.465
1431,0.1,-0.445
1432,0.11,-0.42
1433,0.135,-0.35
1434,0.15,-0.345
1435,0.155,-0.34
1436,0.185,-0.315
1437,0.25,-0.275
1438,0.235,-0.26
1439,0.265,-0.255
1440,0.295,-0.245
1441,0.285,-0.25
1442,0.31,-0.28
1443,0.295,-0.335
1444,0.275,-0.33
1445,0.225,-0.31
1446,0.2,-0.335
1447,0.19,-0.37
1448,0.175,-0.39
1449,0.16,-0.38
1450,0.125,-0.39
1451,0.105,-0.44
1452,0.075,-0.5
1453,0.09,-0.51
1454,0.105,-0.515
1455,0.105,-0.535
1456,0.095,-0.53
1457,0.095,-0.535
1458,0.105,-0.52
1459,0.105,-0.5
1460,0.105,-0.52
1461,0.1,-0.52
1462,0.12,-0.51
1463,0.09,-0.525
1464,0.11,-0.53
1465,0.08,-0.54
1466,0.09,-0.52
1467,0.085,-0.515
1468,0.085,-0.52
1469,0.085,-0.525
1470,0.09,-0.5
1471,0.1,-0.515
1472,0.1,-0.495
1473,0.08,-0.5
1474,0.1,-0.495
1475,0.105,-0.485
1476,0.095,-0.47
1477,0.075,-0.44
1478,0.095,-0.36
1479,0.11,-0.2
1480,0.14,-0.015
1481,0.215,0.24
1482,0.26,0.585
1483,0.22,0.825
1484,-0.06,0.985
1485,-0.56,1.18
1486,-1.25,1.405
1487,-2.005,1.605
1488,-2.52,1.615
1489,-2.78,1.54
1490,-2.785,1.45
1491,-2.67,1.26
1492,-2.52,1.075
1493,-2.35,0.91
1494,-2.255,0.75
1495,-2.115,0.655
1496,-1.94,0.71
1497,-1.81,0.895
1498,-1.68,1.14
1499,-1.565,1.26
1500,-1.41,1.005
1501,-1.26,0.47
1502,-1.17,-0.12
1503,-1.05,-0.5
1504,-0.895,-0.72
1505,-0.715,-0.77
1506,-0.575,-0.74
1507,-0.37,-0.71
1508,-0.17,-0.705
1509,0.03,-0.67
1510,0.215,-0.625
1511,0.375,-0.61
1512,0.49,-0.61
1513,0.555,-0.63
1514,0.625,-0.625
1515,0.64,-0.585
1516,0.665,-0.57
1517,0.68,-0.58
1518,0.71,-0.555
1519,0.72,-0.53
1520,0.74,-0.545
1521,0.735,-0.545
1522,0.76,-0.535
1523,0.765,-0.51
1524,0.785,-0.51
1525,0.81,-0.525
1526,0.81,-0.525
1527,0.84,-0.5
1528,0.845,-0.505
1529,0.87,-0.51
1530,0.87,-0.51
1531,0.895,-0.5
1532,0.9,-0.52
1533,0.915,-0.515
1534,0.94,-0.515
1535,0.97,-0.545
1536,1.01,-0.535
1537,1.04,-0.575
1538,1.055,-0.585
1539,1.07,-0.575
1540,1.1,-0.595
1541,1.15,-0.615
1542,1.155,-0.63
1543,1.17,-0.64
1544,1.215,-0.67
1545,1.22,-0.66
1546,1.23,-0.68
1547,1.24,-0.675
1548,1.25,-0.66
1549,1.27,-0.66
1550,1.265,-0.62
1551,1.245,-0.59
1552,1.235,-0.56
1553,1.185,-0.55
1554,1.155,-0.52
1555,1.095,-0.475
1556,1.065,-0.42
1557,1.025,-0.41
1558,0.955,-0.385
1559,0.92,-0.345
1560,0.84,-0.34
1561,0.8,-0.34
1562,0.74,-0.33
1563,0.695,-0.33
1564,0.625,-0.34
1565,0.57,-0.345
1566,0.525,-0.36
1567,0.5,-0.345
1568,0.45,-0.355
1569,0.43,-0.36
1570,0.37,-0.365
1571,0.355,-0.385
1572,0.35,-0.395
1573,0.325,-0.39
1574,0.3,-0.41
1575,0.285,-0.4
1576,0.275,-0.4
1577,0.28,-0.42
1578,0.27,-0.44
1579,0.27,-0.41
1580,0.265,-0.43
1581,0.29,-0.46
1582,0.25,-0.45
1583,0.255,-0.45
1584,0.265,-0.445
1585,0.26,-0.47
1586,0.265,-0.46
1587,0.275,-0.46
1588,0.25,-0.49
1589,0.24,-0.49
1590,0.265,-0.48
1591,0.275,-0.46
1592,0.255,-0.485
1593,0.28,-0.49
1594,0.275,-0.475
1595,0.28,-0.47
1596,0.26,-0.47
1597,0.26,-0.485
1598,0.265,-0.465
1599,0.275,-0.47
1600,0.25,-0.48
1601,0.29,-0.48
1602,0.255,-0.49
1603,0.26,-0.475
1604,0.265,-0.485
1605,0.255,-0.46
1606,0.265,-0.48
1607,0.27,-0.47
1608,0.275,-0.47
1609,0.255,-0.475
1610,0.27,-0.455
1611,0.23,-0.45
1612,0.245,-0.47
1613,0.235,-0.47
1614,0.24,-0.48
1615,0.24,-0.48
1616,0.245,-0.475
1617,0.22,-0.485
1618,0.21,-0.46
1619,0.22,-0.445
1620,0.22,-0.45
1621,0.215,-0.465
1622,0.21,-0.445
1623,0.235,-0.445
1624,0.235,-0.45
1625,0.21,-0.46
1626,0.21,-0.46
1627,0.235,-0.455
1628,0.225,-0.46
1629,0.21,-0.445
1630,0.21,-0.435
1631,0.215,-0.43
1632,0.225,-0.41
1633,0.22,-0.36
1634,0.21,-0.335
1635,0.22,-0.315
1636,0.27,-0.31
1637,0.325,-0.275
1638,0.31,-0.245
1639,0.335,-0.255
1640,0.365,-0.245
1641,0.385,-0.25
1642,0.38,-0.255
1643,0.41,-0.295
1644,0.365,-0.32
1645,0.315,-0.325
1646,0.29,-0.355
1647,0.23,-0.39
1648,0.23,-0.39
1649,0.2,-0.395
1650,0.165,-0.4
1651,0.15,-0.46
1652,0.155,-0.525
1653,0.15,-0.505
1654,0.17,-0.505
1655,0.14,-0.525
1656,0.145,-0.53
1657,0.14,-0.515
1658,0.12,-0.545
1659,0.145,-0.53
1660,0.135,-0.54
1661,0.15,-0.52
1662,0.14,-0.54
1663,0.115,-0.535
1664,0.135,-0.535
1665,0.12,-0.515
1666,0.12,-0.49
1667,0.11,-0.52
1668,0.15,-0.505
1669,0.125,-0.525
1670,0.14,-0.52
1671,0.15,-0.51
1672,0.14,-0.52
1673,0.115,-0.48
1674,0.13,-0.49
1675,0.125,-0.465
1676,0.135,-0.365
1677,0.14,-0.195
1678,0.16,0.005
1679,0.225,0.345
1680,0.32,0.705
1681,0.235,0.94
1682,-0.09,1.1
1683,-0.59,1.295
1684,-1.355,1.565
1685,-2.09,1.705
1686,-2.595,1.69
1687,-2.765,1.61
1688,-2.79,1.45
1689,-2.68,1.26
1690,-2.545,1.05
1691,-2.38,0.87
1692,-2.32,0.71
1693,-2.145,0.61
1694,-1.98,0.65
1695,-1.86,0.86
1696,-1.74,1.14
1697,-1.58,1.195
1698,-1.44,0.89
1699,-1.32,0.345
1700,-1.145,-0.2
1701,-1.025,-0.55
1702,-0.87,-0.735
1703,-0.675,-0.77
1704,-0.495,-0.785
1705,-0.26,-0.755
1706,-0.07,-0.735
1707,0.12,-0.695
1708,0.31,-0.64
1709,0.44,-0.64
1710,0.515,-0.64
1711,0.59,-0.65
1712,0.63,-0.625
1713,0.645,-0.61
1714,0.705,-0.61
1715,0.72,-0.59
1716,0.72,-0.59
1717,0.74,-0.58
1718,0.745,-0.58
1719,0.75,-0.54
1720,0.775,-0.55
1721,0.775,-0.525
1722,0.81,-0.55
1723,0.84,-0.52
1724,0.815,-0.51
1725,0.825,-0.49
1726,0.85,-0.505
1727,0.865,-0.495
1728,0.87,-0.5
1729,0.88,-0.505
1730,0.91,-0.51
1731,0.93,-0.52
1732,0.97,-0.515
1733,0.97,-0.525
1734,1,-0.58
1735,1.04,-0.58
1736,1.065,-0.61
1737,1.095,-0.625
1738,1.11,-0.63
1739,1.145,-0.65
1740,1.14,-0.65
1741,1.17,-0.66
1742,1.195,-0.695
1743,1.195,-0.68
1744,1.22,-0.665
1745,1.225,-0.7
1746,1.215,-0.685
1747,1.195,-0.63
1748,1.17,-0.61
1749,1.125,-0.58
1750,1.11,-0.54
1751,1.06,-0.5
1752,1.015,-0.46
1753,0.975,-0.45
1754,0.92,-0.4
1755,0.87,-0.385
1756,0.795,-0.38
1757,0.755,-0.37
1758,0.69,-0.355
1759,0.61,-0.34
1760,0.575,-0.36
1761,0.515,-0.375
1762,0.47,-0.38
1763,0.435,-0.39
1764,0.39,-0.42
1765,0.335,-0.425
1766,0.295,-0.42
1767,0.29,-0.415
1768,0.26,-0.42
1769,0.255,-0.425
1770,0.255,-0.45
1771,0.225,-0.435
1772,0.215,-0.445
1773,0.2,-0.47
1774,0.205,-0.45
1775,0.185,-0.47
1776,0.19,-0.48
1777,0.225,-0.47
1778,0.23,-0.47
1779,0.22,-0.47
1780,0.185,-0.48
1781,0.19,-0.495
1782,0.185,-0.49
1783,0.2,-0.5
1784,0.215,-0.5
1785,0.205,-0.5
1786,0.18,-0.49
1787,0.205,-0.47
1788,0.215,-0.495
1789,0.24,-0.49
1790,0.215,-0.5
1791,0.24,-0.515
1792,0.245,-0.51
1793,0.225,-0.515
1794,0.23,-0.52
1795,0.24,-0.525
1796,0.23,-0.535
1797,0.25,-0.51
1798,0.28,-0.495
1799,0.235,-0.5
1800,0.245,-0.5
1801,0.23,-0.52
1802,0.22,-0.49
1803,0.22,-0.5
1804,0.22,-0.505
1805,0.22,-0.51
1806,0.225,-0.49
1807,0.24,-0.51
1808,0.21,-0.49
1809,0.2,-0.495
1810,0.18,-0.485
1811,0.21,-0.5
1812,0.215,-0.505
1813,0.21,-0.465
1814,0.195,-0.495
1815,0.195,-0.505
1816,0.195,-0.5
1817,0.195,-0.48
1818,0.195,-0.465
1819,0.18,-0.5
1820,0.16,-0.48
1821,0.175,-0.465
1822,0.17,-0.455
1823,0.17,-0.465
1824,0.155,-0.485
1825,0.155,-0.47
1826,0.17,-0.445
1827,0.175,-0.435
1828,0.165,-0.425
1829,0.17,-0.43
1830,0.15,-0.39
1831,0.175,-0.355
1832,0.17,-0.325
1833,0.165,-0.3
1834,0.185,-0.275
1835,0.21,-0.29
1836,0.23,-0.265
1837,0.265,-0.22
1838,0.295,-0.2
1839,0.305,-0.235
1840,0.31,-0.25
1841,0.32,-0.265
1842,0.32,-0.3
1843,0.315,-0.325
1844,0.28,-0.35
1845,0.2,-0.345
1846,0.195,-0.36
1847,0.2,-0.39
1848,0.175,-0.39
1849,0.125,-0.405
1850,0.1,-0.425
1851,0.11,-0.495
1852,0.1,-0.515
1853,0.11,-0.49
1854,0.11,-0.475
1855,0.085,-0.505
1856,0.1,-0.505
1857,0.095,-0.505
1858,0.09,-0.505
1859,0.11,-0.53
1860,0.1,-0.52
1861,0.085,-0.48
1862,0.095,-0.49
1863,0.1,-0.515
1864,0.085,-0.49
1865,0.08,-0.52
1866,0.09,-0.49
1867,0.105,-0.52
1868,0.075,-0.51
1869,0.09,-0.48
1870,0.085,-0.49
1871,0.095,-0.48
1872,0.095,-0.455
1873,0.1,-0.46
1874,0.09,-0.405
1875,0.11,-0.34
1876,0.11,-0.17
1877,0.14,0.07
1878,0.195,0.435
1879,0.285,0.84
1880,0.18,1.135
1881,-0.11,1.36
1882,-0.605,1.57
1883,-1.32,1.82
1884,-2.045,1.985
1885,-2.55,1.96
1886,-2.74,1.85
1887,-2.7,1.685
1888,-2.59,1.455
1889,-2.365,1.24
1890,-2.235,1.08
1891,-2.145,0.925
1892,-2,0.87
1893,-1.82,0.94
1894,-1.705,1.155
1895,-1.6,1.42
1896,-1.47,1.52
1897,-1.34,1.25
1898,-1.18,0.7
1899,-1.075,0.115
1900,-0.95,-0.32
1901,-0.815,-0.585
1902,-0.645,-0.7
1903,-0.47,-0.725
1904,-0.285,-0.745
1905,-0.1,-0.71
1906,0.065,-0.685
1907,0.26,-0.675
1908,0.38,-0.68
1909,0.485,-0.655
1910,0.55,-0.68
1911,0.595,-0.67
1912,0.61,-0.65
1913,0.65,-0.63
1914,0.67,-0.63
1915,0.69,-0.635
1916,0.685,-0.595
1917,0.685,-0.605
1918,0.705,-0.58
1919,0.705,-0.585
1920,0.715,-0.595
1921,0.715,-0.585
1922,0.735,-0.565
1923,0.755,-0.585
1924,0.76,-0.555
1925,0.79,-0.555
1926,0.78,-0.56
1927,0.815,-0.555
1928,0.835,-0.525
1929,0.845,-0.535
1930,0.865,-0.57
1931,0.875,-0.56
1932,0.905,-0.595
1933,0.935,-0.62
1934,0.935,-0.615
1935,0.96,-0.635
1936,0.99,-0.645
1937,1.005,-0.675
1938,1.06,-0.665
1939,1.06,-0.7
1940,1.085,-0.705
1941,1.085,-0.715
1942,1.105,-0.72
1943,1.14,-0.705
1944,1.14,-0.71
1945,1.12,-0.69
1946,1.095,-0.67
1947,1.095,-0.655
1948,1.07,-0.63
1949,1.035,-0.575
1950,1.035,-0.56
1951,0.995,-0.545
1952,0.95,-0.47
1953,0.915,-0.45
1954,0.89,-0.445
1955,0.8,-0.41
1956,0.765,-0.37
1957,0.72,-0.345
1958,0.67,-0.36
1959,0.6,-0.355
1960,0.57,-0.37
1961,0.52,-0.36
1962,0.46,-0.395
1963,0.43,-0.395
1964,0.39,-0.41
1965,0.345,-0.385
1966,0.345,-0.425
1967,0.29,-0.435
1968,0.26,-0.41
1969,0.25,-0.43
1970,0.245,-0.46
1971,0.225,-0.475
1972,0.205,-0.45
1973,0.215,-0.45
1974,0.19,-0.445
1975,0.195,-0.455
1976,0.215,-0.465
1977,0.18,-0.475
1978,0.19,-0.47
1979,0.195,-0.485
1980,0.19,-0.515
1981,0.195,-0.49
1982,0.195,-0.49
1983,0.195,-0.495
1984,0.21,-0.48
1985,0.185,-0.485
1986,0.2,-0.495
1987,0.21,-0.52
1988,0.21,-0.52
1989,0.225,-0.525
1990,0.215,-0.51
1991,0.22,-0.535
1992,0.2,-0.535
1993,0.225,-0.54
1994,0.205,-0.53
1995,0.195,-0.525
1996,0.22,-0.545
1997,0.19,-0.545
1998,0.2,-0.555
1999,0.205,-0.56
2000,0.21,-0.53
2001,0.215,-0.52
2002,0.21,-0.525
2003,0.175,-0.545
2004,0.18,-0.555
2005,0.185,-0.535
2006,0.19,-0.545
2007,0.17,-0.545
2008,0.175,-0.525
2009,0.19,-0.505
2010,0.18,-0.55
2011,0.175,-0.555
2012,0.165,-0.555
2013,0.175,-0.54
2014,0.175,-0.51
2015,0.17,-0.53
2016,0.165,-0.54
2017,0.155,-0.54
2018,0.17,-0.55
2019,0.15,-0.525
2020,0.155,-0.535
2021,0.16,-0.515
2022,0.16,-0.51
2023,0.15,-0.525
2024,0.15,-0.53
2025,0.18,-0.505
2026,0.175,-0.49
2027,0.16,-0.52
2028,0.145,-0.515
2029,0.175,-0.5
2030,0.16,-0.5
2031,0.15,-0.5
2032,0.16,-0.49
2033,0.16,-0.46
2034,0.17,-0.47
2035,0.165,-0.43
2036,0.155,-0.4
2037,0.17,-0.365
2038,0.18,-0.35
2039,0.21,-0.36
2040,0.22,-0.31
2041,0.24,-0.245
2042,0.28,-0.245
2043,0.31,-0.265
2044,0.315,-0.27
2045,0.325,-0.295
2046,0.315,-0.35
2047,0.285,-0.36
2048,0.235,-0.36
2049,0.2,-0.36
2050,0.175,-0.375
2051,0.205,-0.425
2052,0.195,-0.42
2053,0.14,-0.43
2054,0.125,-0.425
2055,0.115,-0.495
2056,0.1,-0.52
2057,0.095,-0.52
2058,0.12,-0.52
2059,0.105,-0.545
2060,0.095,-0.535
2061,0.09,-0.535
2062,0.09,-0.53
2063,0.085,-0.54
2064,0.095,-0.54
2065,0.085,-0.545
2066,0.105,-0.53
2067,0.085,-0.53
2068,0.115,-0.53
2069,0.09,-0.52
2070,0.085,-0.54
2071,0.105,-0.53
2072,0.105,-0.51
2073,0.085,-0.525
2074,0.095,-0.535
2075,0.095,-0.5
2076,0.12,-0.51
2077,0.105,-0.485
2078,0.095,-0.49
2079,0.105,-0.47
2080,0.085,-0.43
2081,0.085,-0.32
2082,0.09,-0.15
2083,0.155,0.105
2084,0.25,0.495
2085,0.285,0.935
2086,0.155,1.245
2087,-0.16,1.455
2088,-0.66,1.69
2089,-1.36,1.93
2090,-2.035,2.11
2091,-2.515,2.13
2092,-2.75,2.015
2093,-2.765,1.91
2094,-2.64,1.715
2095,-2.465,1.495
2096,-2.245,1.31
2097,-2.115,1.16
2098,-2,1.04
2099,-1.8,1.1
2100,-1.68,1.29
2101,-1.575,1.565
2102,-1.44,1.74
2103,-1.305,1.555
2104,-1.17,1.05
2105,-1.04,0.445
2106,-0.91,-0.08
2107,-0.8,-0.41
2108,-0.625,-0.63
2109,-0.475,-0.715
2110,-0.335,-0.74
2111,-0.14,-0.78
2112,0.02,-0.725
2113,0.2,-0.7
2114,0.33,-0.695
2115,0.455,-0.695
2116,0.525,-0.69
2117,0.61,-0.68
2118,0.62,-0.67
2119,0.62,-0.655
2120,0.655,-0.665
2121,0.675,-0.665
2122,0.69,-0.665
2123,0.72,-0.63
2124,0.69,-0.615
2125,0.71,-0.61
2126,0.73,-0.6
2127,0.73,-0.56
2128,0.75,-0.595
2129,0.755,-0.59
2130,0.785,-0.59
2131,0.795,-0.59
2132,0.81,-0.545
2133,0.83,-0.575
2134,0.835,-0.585
2135,0.855,-0.575
2136,0.86,-0.585
2137,0.875,-0.595
2138,0.905,-0.615
2139,0.93,-0.625
2140,0.96,-0.625
2141,0.99,-0.64
2142,1.005,-0.655
2143,1.02,-0.665
2144,1.055,-0.69
2145,1.075,-0.72
2146,1.105,-0.725
2147,1.105,-0.755
2148,1.125,-0.745
2149,1.145,-0.75
2150,1.175,-0.76
2151,1.165,-0.765
2152,1.18,-0.74
2153,1.175,-0.725
2154,1.16,-0.71
2155,1.175,-0.665
2156,1.12,-0.635
2157,1.095,-0.605
2158,1.055,-0.57
2159,1.04,-0.54
2160,1.005,-0.505
2161,0.93,-0.45
2162,0.905,-0.43
2163,0.86,-0.405
2164,0.79,-0.37
2165,0.735,-0.365
2166,0.665,-0.37
2167,0.655,-0.36
2168,0.56,-0.375
2169,0.525,-0.37
2170,0.46,-0.395
2171,0.425,-0.405
2172,0.39,-0.4
2173,0.39,-0.405
2174,0.33,-0.41
2175,0.315,-0.42
2176,0.295,-0.41
2177,0.24,-0.42
2178,0.25,-0.44
2179,0.24,-0.43
2180,0.215,-0.44
2181,0.225,-0.43
2182,0.195,-0.44
2183,0.195,-0.44
2184,0.195,-0.445
2185,0.175,-0.435
2186,0.19,-0.455
2187,0.185,-0.465
2188,0.175,-0.465
2189,0.175,-0.475
2190,0.18,-0.48
2191,0.18,-0.5
2192,0.195,-0.5
2193,0.19,-0.495
2194,0.19,-0.49
2195,0.19,-0.485
2196,0.185,-0.51
2197,0.205,-0.5
2198,0.165,-0.515
2199,0.19,-0.515
2200,0.18,-0.525
2201,0.205,-0.515
2202,0.2,-0.51
2203,0.18,-0.535
2204,0.205,-0.545
2205,0.205,-0.535
2206,0.185,-0.525
2207,0.195,-0.53
2208,0.185,-0.53
2209,0.185,-0.545
2210,0.18,-0.54
2211,0.19,-0.525
2212,0.175,-0.535
2213,0.195,-0.525
2214,0.165,-0.52
2215,0.165,-0.515
2216,0.165,-0.505
2217,0.185,-0.51
2218,0.19,-0.505
2219,0.165,-0.525
2220,0.16,-0.52
2221,0.165,-0.52
2222,0.19,-0.505
2223,0.155,-0.525
2224,0.17,-0.535
2225,0.16,-0.515
2226,0.17,-0.505
2227,0.165,-0.505
2228,0.155,-0.505
2229,0.175,-0.52
2230,0.175,-0.495
2231,0.165,-0.51
2232,0.17,-0.49
2233,0.16,-0.5
2234,0.155,-0.495
2235,0.15,-0.475
2236,0.15,-0.505
2237,0.14,-0.49
2238,0.175,-0.485
2239,0.145,-0.48
2240,0.16,-0.51
2241,0.15,-0.495
2242,0.16,-0.45
2243,0.145,-0.41
2244,0.15,-0.385
2245,0.16,-0.375
2246,0.195,-0.365
2247,0.235,-0.34
2248,0.235,-0.315
2249,0.29,-0.275
2250,0.295,-0.265
2251,0.325,-0.265
2252,0.33,-0.265
2253,0.315,-0.33
2254,0.3,-0.35
2255,0.3,-0.34
2256,0.23,-0.34
2257,0.205,-0.385
2258,0.18,-0.405
2259,0.19,-0.385
2260,0.185,-0.38
2261,0.145,-0.43
2262,0.12,-0.48
2263,0.14,-0.515
2264,0.125,-0.535
2265,0.11,-0.555
2266,0.14,-0.55
2267,0.12,-0.54
2268,0.13,-0.53
2269,0.11,-0.56
2270,0.12,-0.545
2271,0.12,-0.54
2272,0.125,-0.53
2273,0.1,-0.545
2274,0.095,-0.535
2275,0.135,-0.515
2276,0.115,-0.535
2277,0.125,-0.53
2278,0.125,-0.53
2279,0.09,-0.53
2280,0.105,-0.53
2281,0.1,-0.515
2282,0.135,-0.525
2283,0.115,-0.5
2284,0.11,-0.49
2285,0.13,-0.495
2286,0.125,-0.49
2287,0.14,-0.45
2288,0.125,-0.35
2289,0.15,-0.2
2290,0.135,-0.04
2291,0.19,0.24
2292,0.295,0.6
2293,0.245,0.84
2294,0.01,1.015
2295,-0.405,1.21
2296,-1.04,1.43
2297,-1.805,1.66
2298,-2.34,1.7
2299,-2.65,1.655
2300,-2.7,1.58
2301,-2.645,1.48
2302,-2.5,1.285
2303,-2.365,1.145
2304,-2.22,0.98
2305,-2.125,0.83
2306,-1.965,0.745
2307,-1.83,0.835
2308,-1.705,1.04
2309,-1.58,1.3
2310,-1.43,1.32
2311,-1.29,1.01
2312,-1.17,0.47
2313,-1.035,-0.09
2314,-0.955,-0.48
2315,-0.8,-0.68
2316,-0.66,-0.72
2317,-0.5,-0.7
2318,-0.31,-0.7
2319,-0.13,-0.7
2320,0.045,-0.675
2321,0.22,-0.605
2322,0.38,-0.6
2323,0.515,-0.605
2324,0.59,-0.62
2325,0.63,-0.6
2326,0.65,-0.58
2327,0.67,-0.57
2328,0.685,-0.59
2329,0.71,-0.545
2330,0.74,-0.555
2331,0.745,-0.545
2332,0.735,-0.555
2333,0.75,-0.535
2334,0.76,-0.52
2335,0.785,-0.505
2336,0.775,-0.525
2337,0.795,-0.475
2338,0.79,-0.505
2339,0.805,-0.5
2340,0.82,-0.505
2341,0.84,-0.5
2342,0.855,-0.49
2343,0.88,-0.505
2344,0.87,-0.515
2345,0.915,-0.52
2346,0.935,-0.53
2347,0.95,-0.525
2348,0.95,-0.555
2349,1.01,-0.565
2350,1.025,-0.555
2351,1.08,-0.575
2352,1.105,-0.585
2353,1.11,-0.61
2354,1.115,-0.62
2355,1.145,-0.64
2356,1.175,-0.65
2357,1.18,-0.68
2358,1.205,-0.66
2359,1.215,-0.665
2360,1.21,-0.685
2361,1.23,-0.665
2362,1.24,-0.635
2363,1.23,-0.62
2364,1.205,-0.595
2365,1.19,-0.57
2366,1.145,-0.545
2367,1.11,-0.525
2368,1.08,-0.455
2369,1.03,-0.44
2370,0.985,-0.4
2371,0.93,-0.37
2372,0.85,-0.355
2373,0.81,-0.365
2374,0.775,-0.335
2375,0.685,-0.315
2376,0.66,-0.33
2377,0.6,-0.33
2378,0.56,-0.34
2379,0.515,-0.335
2380,0.47,-0.34
2381,0.405,-0.365
2382,0.375,-0.38
2383,0.355,-0.375
2384,0.345,-0.38
2385,0.315,-0.395
2386,0.295,-0.41
2387,0.275,-0.385
2388,0.27,-0.42
2389,0.26,-0.425
2390,0.27,-0.42
2391,0.26,-0.425
2392,0.25,-0.435
2393,0.26,-0.44
2394,0.26,-0.44
2395,0.23,-0.455
2396,0.255,-0.445
2397,0.245,-0.445
2398,0.255,-0.465
2399,0.235,-0.475
2400,0.245,-0.47
2401,0.245,-0.47
2402,0.25,-0.475
2403,0.215,-0.46
2404,0.24,-0.48
2405,0.255,-0.5
2406,0.235,-0.495
2407,0.24,-0.505
2408,0.245,-0.485
2409,0.235,-0.495
2410,0.235,-0.495
2411,0.235,-0.51
2412,0.24,-0.485
2413,0.245,-0.515
2414,0.255,-0.5
2415,0.245,-0.49
2416,0.22,-0.495
2417,0.225,-0.49
2418,0.21,-0.5
2419,0.205,-0.525
2420,0.22,-0.495
2421,0.215,-0.495
2422,0.225,-0.5
2423,0.21,-0.485
2424,0.215,-0.48
2425,0.21,-0.495
2426,0.225,-0.48
2427,0.225,-0.49
2428,0.235,-0.475
2429,0.21,-0.495
2430,0.195,-0.515
2431,0.215,-0.505
2432,0.215,-0.485
2433,0.18,-0.48
2434,0.195,-0.495
2435,0.165,-0.48
2436,0.185,-0.465
2437,0.185,-0.48
2438,0.18,-0.48
2439,0.18,-0.47
2440,0.19,-0.47
2441,0.19,-0.485
2442,0.2,-0.48
2443,0.175,-0.485
2444,0.2,-0.465
2445,0.18,-0.46
2446,0.175,-0.47
2447,0.17,-0.505
2448,0.19,-0.475
2449,0.175,-0.45
2450,0.175,-0.465
2451,0.175,-0.465
2452,0.165,-0.435
2453,0.19,-0.385
2454,0.2,-0.35
2455,0.185,-0.355
2456,0.21,-0.31
2457,0.26,-0.285
2458,0.295,-0.265
2459,0.29,-0.275
2460,0.35,-0.255
2461,0.375,-0.22
2462,0.355,-0.26
2463,0.38,-0.29
2464,0.35,-0.32
2465,0.31,-0.3
2466,0.29,-0.325
2467,0.255,-0.36
2468,0.215,-0.4
2469,0.24,-0.395
2470,0.215,-0.39
2471,0.185,-0.44
2472,0.17,-0.485
2473,0.16,-0.52
2474,0.17,-0.515
2475,0.175,-0.525
2476,0.155,-0.52
2477,0.165,-0.52
2478,0.17,-0.51
2479,0.15,-0.525
2480,0.155,-0.555
2481,0.145,-0.53
2482,0.135,-0.54
2483,0.15,-0.525
2484,0.155,-0.535
2485,0.155,-0.52
2486,0.14,-0.505
2487,0.13,-0.535
2488,0.145,-0.53
2489,0.125,-0.54
2490,0.135,-0.505
2491,0.14,-0.5
2492,0.14,-0.52
2493,0.15,-0.525
2494,0.155,-0.5
2495,0.14,-0.5
2496,0.13,-0.475
2497,0.15,-0.44
2498,0.17,-0.33
2499,0.155,-0.21
2500,0.185,-0.025
2501,0.23,0.275
2502,0.34,0.575
2503,0.285,0.81
2504,0,0.945
2505,-0.435,1.13
2506,-1.115,1.33
2507,-1.87,1.525
2508,-2.45,1.51
2509,-2.715,1.445
2510,-2.76,1.355
2511,-2.655,1.205
2512,-2.535,1.02
2513,-2.4,0.86
2514,-2.29,0.7
2515,-2.15,0.55
2516,-1.97,0.52
2517,-1.865,0.64
2518,-1.74,0.88
2519,-1.6,1.06
2520,-1.46,0.895
2521,-1.305,0.44
2522,-1.17,-0.1
2523,-1.045,-0.545
2524,-0.875,-0.75
2525,-0.735,-0.805
2526,-0.575,-0.77
2527,-0.39,-0.715
2528,-0.22,-0.67
2529,-0.03,-0.655
2530,0.165,-0.605
2531,0.36,-0.575
2532,0.49,-0.58
2533,0.57,-0.59
2534,0.615,-0.57
2535,0.685,-0.54
2536,0.7,-0.53
2537,0.71,-0.52
2538,0.73,-0.53
2539,0.76,-0.52
2540,0.78,-0.51
2541,0.785,-0.49
2542,0.81,-0.485
2543,0.835,-0.47
2544,0.815,-0.495
2545,0.825,-0.475
2546,0.855,-0.47
2547,0.84,-0.465
2548,0.85,-0.45
2549,0.865,-0.47
2550,0.89,-0.47
2551,0.925,-0.47
2552,0.955,-0.485
2553,0.975,-0.485
2554,1.015,-0.505
2555,1.035,-0.5
2556,1.015,-0.51
2557,1.045,-0.53
2558,1.075,-0.515
2559,1.115,-0.54
2560,1.13,-0.57
2561,1.16,-0.57
2562,1.19,-0.59
2563,1.195,-0.605
2564,1.215,-0.62
2565,1.245,-0.635
2566,1.255,-0.635
2567,1.26,-0.635
2568,1.275,-0.625
2569,1.265,-0.635
2570,1.265,-0.61
2571,1.255,-0.56
2572,1.23,-0.53
2573,1.195,-0.535
2574,1.175,-0.485
2575,1.125,-0.465
2576,1.105,-0.41
2577,1.05,-0.38
2578,0.98,-0.365
2579,0.955,-0.32
2580,0.88,-0.31
2581,0.815,-0.3
2582,0.765,-0.3
2583,0.715,-0.29
2584,0.65,-0.3
2585,0.59,-0.3
2586,0.555,-0.32
2587,0.54,-0.32
2588,0.48,-0.32
2589,0.425,-0.35
2590,0.385,-0.36
2591,0.38,-0.365
2592,0.345,-0.395
2593,0.33,-0.39
2594,0.3,-0.375
2595,0.275,-0.385
2596,0.285,-0.405
2597,0.255,-0.415
2598,0.27,-0.44
2599,0.27,-0.415
2600,0.28,-0.42
2601,0.3,-0.425
2602,0.27,-0.44
2603,0.275,-0.42
2604,0.275,-0.445
2605,0.275,-0.465
2606,0.275,-0.48
2607,0.27,-0.455
2608,0.255,-0.46
2609,0.27,-0.455
2610,0.285,-0.455
2611,0.275,-0.45
2612,0.27,-0.45
2613,0.26,-0.47
2614,0.265,-0.47
2615,0.265,-0.46
2616,0.26,-0.47
2617,0.26,-0.48
2618,0.275,-0.475
2619,0.28,-0.46
2620,0.26,-0.475
2621,0.275,-0.46
2622,0.295,-0.48
2623,0.255,-0.47
2624,0.26,-0.485
2625,0.26,-0.51
2626,0.255,-0.485
2627,0.26,-0.48
2628,0.25,-0.47
2629,0.255,-0.47
2630,0.245,-0.47
2631,0.235,-0.46
2632,0.25,-0.495
2633,0.22,-0.47
2634,0.25,-0.49
2635,0.225,-0.465
2636,0.235,-0.46
2637,0.22,-0.475
2638,0.23,-0.455
2639,0.22,-0.455
2640,0.225,-0.46
2641,0.225,-0.47
2642,0.225,-0.45
2643,0.2,-0.455
2644,0.215,-0.425
2645,0.235,-0.43
2646,0.215,-0.43
2647,0.19,-0.43
2648,0.22,-0.445
2649,0.195,-0.44
2650,0.19,-0.45
2651,0.215,-0.435
2652,0.21,-0.41
2653,0.2,-0.45
2654,0.21,-0.445
2655,0.21,-0.425
2656,0.205,-0.43
2657,0.225,-0.445
2658,0.22,-0.45
2659,0.195,-0.42
2660,0.185,-0.41
2661,0.205,-0.405
2662,0.185,-0.415
2663,0.205,-0.36
2664,0.205,-0.35
2665,0.2,-0.315
2666,0.24,-0.275
2667,0.245,-0.24
2668,0.28,-0.22
2669,0.305,-0.215
2670,0.31,-0.2
2671,0.345,-0.205
2672,0.355,-0.26
2673,0.36,-0.295
2674,0.325,-0.305
2675,0.3,-0.3
2676,0.23,-0.325
2677,0.2,-0.37
2678,0.215,-0.36
2679,0.19,-0.35
2680,0.15,-0.38
2681,0.115,-0.41
2682,0.095,-0.46
2683,0.1,-0.46
2684,0.115,-0.475
2685,0.135,-0.495
2686,0.115,-0.49
2687,0.11,-0.5
2688,0.115,-0.475
2689,0.12,-0.485
2690,0.115,-0.49
2691,0.09,-0.495
2692,0.085,-0.49
2693,0.09,-0.49
2694,0.095,-0.485
2695,0.09,-0.475
2696,0.095,-0.47
2697,0.095,-0.49
2698,0.095,-0.47
2699,0.095,-0.46
2700,0.08,-0.47
2701,0.095,-0.47
2702,0.095,-0.46
2703,0.105,-0.48
2704,0.095,-0.47
2705,0.105,-0.44
2706,0.115,-0.38
2707,0.11,-0.265
2708,0.11,-0.115
2709,0.145,0.155
2710,0.26,0.505
2711,0.31,0.88
2712,0.17,1.13
2713,-0.15,1.32
2714,-0.64,1.5
2715,-1.37,1.725
2716,-2.085,1.9
2717,-2.54,1.88
2718,-2.765,1.805
2719,-2.735,1.64
2720,-2.62,1.39
2721,-2.44,1.18
2722,-2.285,1.025
2723,-2.175,0.855
2724,-2.015,0.825
2725,-1.845,0.935
2726,-1.715,1.18
2727,-1.6,1.455
2728,-1.485,1.39
2729,-1.325,1.01
2730,-1.175,0.46
2731,-1.035,-0.06
2732,-0.91,-0.415
2733,-0.745,-0.605
2734,-0.56,-0.67
2735,-0.4,-0.735
2736,-0.245,-0.745
2737,-0.04,-0.69
2738,0.115,-0.665
2739,0.285,-0.625
2740,0.42,-0.62
2741,0.48,-0.635
2742,0.54,-0.625
2743,0.585,-0.615
2744,0.625,-0.61
2745,0.64,-0.605
2746,0.665,-0.575
2747,0.67,-0.57
2748,0.66,-0.565
2749,0.67,-0.55
2750,0.68,-0.555
2751,0.675,-0.545
2752,0.685,-0.545
2753,0.71,-0.52
2754,0.705,-0.495
2755,0.745,-0.5
2756,0.74,-0.505
2757,0.77,-0.495
2758,0.785,-0.5
2759,0.8,-0.48
2760,0.8,-0.48
2761,0.835,-0.505
2762,0.855,-0.49
2763,0.885,-0.505
2764,0.905,-0.545
2765,0.91,-0.54
2766,0.94,-0.535
2767,0.985,-0.535
2768,0.985,-0.58
2769,1.02,-0.615
2770,1.045,-0.62
2771,1.07,-0.615
2772,1.085,-0.62
2773,1.105,-0.625
2774,1.125,-0.63
2775,1.155,-0.63
2776,1.135,-0.605
2777,1.12,-0.6
2778,1.105,-0.55
2779,1.08,-0.525
2780,1.065,-0.51
2781,1.03,-0.475
2782,0.99,-0.42
2783,0.95,-0.39
2784,0.9,-0.375
2785,0.87,-0.365
2786,0.815,-0.325
2787,0.775,-0.305
2788,0.715,-0.29
2789,0.68,-0.265
2790,0.615,-0.275
2791,0.55,-0.3
2792,0.53,-0.305
2793,0.47,-0.315
2794,0.435,-0.325
2795,0.395,-0.33
2796,0.35,-0.315
2797,0.3,-0.315
2798,0.31,-0.355
2799,0.27,-0.35
2800,0.255,-0.365
2801,0.24,-0.36
2802,0.25,-0.35
2803,0.25,-0.36
2804,0.21,-0.375
2805,0.215,-0.38
2806,0.195,-0.39
2807,0.19,-0.41
2808,0.2,-0.39
2809,0.205,-0.4
2810,0.23,-0.385
2811,0.2,-0.405
2812,0.215,-0.405
2813,0.22,-0.4
2814,0.235,-0.4
2815,0.2,-0.415
2816,0.2,-0.415
2817,0.22,-0.415
2818,0.23,-0.41
2819,0.215,-0.43
2820,0.225,-0.465
2821,0.225,-0.44
2822,0.225,-0.385
2823,0.225,-0.425
2824,0.23,-0.425
2825,0.205,-0.455
2826,0.21,-0.46
2827,0.24,-0.46
2828,0.19,-0.47
2829,0.185,-0.46
2830,0.195,-0.47
2831,0.215,-0.45
2832,0.195,-0.46
2833,0.19,-0.465
2834,0.185,-0.465
2835,0.175,-0.455
2836,0.175,-0.445
2837,0.15,-0.44
2838,0.16,-0.45
2839,0.175,-0.48
2840,0.15,-0.475
2841,0.165,-0.455
2842,0.15,-0.455
2843,0.15,-0.45
2844,0.15,-0.45
2845,0.15,-0.445
2846,0.155,-0.44
2847,0.15,-0.455
2848,0.155,-0.46
2849,0.16,-0.42
2850,0.175,-0.415
2851,0.145,-0.42
2852,0.145,-0.41
2853,0.14,-0.44
2854,0.15,-0.42
2855,0.145,-0.415
2856,0.12,-0.435
2857,0.145,-0.43
2858,0.135,-0.4
2859,0.13,-0.4
2860,0.115,-0.395
2861,0.125,-0.4
2862,0.135,-0.41
2863,0.13,-0.42
2864,0.14,-0.4
2865,0.14,-0.405
2866,0.145,-0.415
2867,0.14,-0.385
2868,0.12,-0.34
2869,0.13,-0.32
2870,0.155,-0.27
2871,0.175,-0.255
2872,0.22,-0.24
2873,0.23,-0.195
2874,0.25,-0.19
2875,0.285,-0.185
2876,0.295,-0.185
2877,0.295,-0.195
2878,0.32,-0.24
2879,0.29,-0.27
2880,0.24,-0.255
2881,0.22,-0.29
2882,0.19,-0.315
2883,0.185,-0.35
2884,0.16,-0.355
2885,0.135,-0.37
2886,0.125,-0.39
2887,0.1,-0.435
2888,0.095,-0.415
2889,0.095,-0.46
2890,0.1,-0.47
2891,0.11,-0.46
2892,0.095,-0.455
2893,0.06,-0.44
2894,0.11,-0.45
2895,0.08,-0.45
2896,0.09,-0.435
2897,0.085,-0.44
2898,0.085,-0.445
2899,0.08,-0.45
2900,0.095,-0.455
2901,0.1,-0.445
2902,0.09,-0.425
2903,0.1,-0.43
2904,0.095,-0.44
2905,0.105,-0.455
2906,0.09,-0.45
2907,0.085,-0.435
2908,0.11,-0.415
2909,0.105,-0.395
2910,0.11,-0.365
2911,0.105,-0.275
2912,0.1,-0.11
2913,0.13,0.125
2914,0.18,0.505
2915,0.285,0.96
2916,0.185,1.32
2917,-0.09,1.535
2918,-0.545,1.74
2919,-1.235,2.025
2920,-1.95,2.2
2921,-2.475,2.21
2922,-2.735,2.115
2923,-2.755,1.99
2924,-2.63,1.78
2925,-2.43,1.55
2926,-2.22,1.385
2927,-2.115,1.23
2928,-1.99,1.11
2929,-1.81,1.155
2930,-1.7,1.385
2931,-1.6,1.7
2932,-1.485,1.84
2933,-1.32,1.57
2934,-1.185,1
2935,-1.05,0.385
2936,-0.95,-0.135
2937,-0.81,-0.505
2938,-0.605,-0.64
2939,-0.47,-0.705
2940,-0.315,-0.735
2941,-0.13,-0.7
2942,0.045,-0.675
2943,0.185,-0.65
2944,0.34,-0.665
2945,0.44,-0.67
2946,0.485,-0.66
2947,0.52,-0.65
2948,0.54,-0.66
2949,0.575,-0.625
2950,0.585,-0.615
2951,0.615,-0.585
2952,0.615,-0.6
2953,0.63,-0.61
2954,0.645,-0.59
2955,0.655,-0.6
2956,0.675,-0.575
2957,0.665,-0.58
2958,0.695,-0.57
2959,0.715,-0.54
2960,0.7,-0.53
2961,0.73,-0.55
2962,0.765,-0.545
2963,0.755,-0.565
2964,0.785,-0.555
2965,0.795,-0.56
2966,0.835,-0.575
2967,0.84,-0.57
2968,0.855,-0.605
2969,0.89,-0.6
2970,0.925,-0.625
2971,0.945,-0.65
2972,0.975,-0.665
2973,0.995,-0.685
2974,1.03,-0.695
2975,1.045,-0.695
2976,1.05,-0.71
2977,1.07,-0.725
2978,1.095,-0.715
2979,1.095,-0.725
2980,1.12,-0.71
2981,1.1,-0.705
2982,1.105,-0.665
2983,1.07,-0.63
2984,1.065,-0.61
2985,1.03,-0.575
2986,0.985,-0.51
2987,0.945,-0.47
2988,0.91,-0.46
2989,0.855,-0.4
2990,0.825,-0.365
2991,0.775,-0.36
2992,0.71,-0.34
2993,0.655,-0.31
2994,0.615,-0.31
2995,0.555,-0.31
2996,0.505,-0.335
2997,0.445,-0.325
2998,0.4,-0.325
2999,0.365,-0.355
3000,0.31,-0.37
3001,0.32,-0.35
3002,0.26,-0.355
3003,0.26,-0.365
3004,0.24,-0.385
3005,0.215,-0.375
3006,0.215,-0.39
3007,0.175,-0.38
3008,0.185,-0.405
3009,0.2,-0.385
3010,0.18,-0.405
3011,0.195,-0.405
3012,0.18,-0.405
3013,0.185,-0.41
3014,0.145,-0.405
3015,0.18,-0.415
3016,0.18,-0.42
3017,0.175,-0.42
3018,0.18,-0.425
3019,0.17,-0.425
3020,0.17,-0.45
3021,0.195,-0.435
3022,0.19,-0.425
3023,0.195,-0.455
3024,0.185,-0.465
3025,0.185,-0.455
3026,0.195,-0.455
3027,0.19,-0.46
3028,0.16,-0.46
3029,0.185,-0.45
3030,0.195,-0.45
3031,0.215,-0.46
3032,0.19,-0.48
3033,0.19,-0.46
3034,0.205,-0.45
3035,0.215,-0.48
3036,0.22,-0.48
3037,0.175,-0.48
3038,0.195,-0.47
3039,0.2,-0.465
3040,0.195,-0.45
3041,0.18,-0.46
3042,0.19,-0.46
3043,0.2,-0.47
3044,0.19,-0.45
3045,0.17,-0.445
3046,0.17,-0.43
3047,0.17,-0.46
3048,0.185,-0.455
3049,0.18,-0.44
3050,0.195,-0.45
3051,0.175,-0.435
3052,0.185,-0.42
3053,0.195,-0.415
3054,0.185,-0.405
3055,0.17,-0.42
3056,0.18,-0.42
3057,0.17,-0.41
3058,0.205,-0.42
3059,0.19,-0.43
3060,0.17,-0.425
3061,0.17,-0.405
3062,0.17,-0.405
3063,0.19,-0.405
3064,0.185,-0.385
3065,0.17,-0.395
3066,0.16,-0.39
3067,0.165,-0.39
3068,0.195,-0.365
3069,0.195,-0.355
3070,0.16,-0.335
3071,0.165,-0.295
3072,0.17,-0.285
3073,0.19,-0.26
3074,0.23,-0.225
3075,0.28,-0.21
3076,0.28,-0.195
3077,0.325,-0.175
3078,0.325,-0.16
3079,0.37,-0.17
3080,0.36,-0.2
3081,0.32,-0.24
3082,0.33,-0.24
3083,0.3,-0.24
3084,0.27,-0.27
3085,0.22,-0.27
3086,0.225,-0.29
3087,0.205,-0.29
3088,0.185,-0.33
3089,0.155,-0.365
3090,0.145,-0.415
3091,0.165,-0.45
3092,0.165,-0.45
3093,0.14,-0.43
3094,0.135,-0.435
3095,0.15,-0.425
3096,0.135,-0.44
3097,0.15,-0.45
3098,0.15,-0.425
3099,0.12,-0.44
3100,0.12,-0.435
3101,0.155,-0.435
3102,0.135,-0.435
3103,0.145,-0.425
3104,0.145,-0.45
3105,0.135,-0.425
3106,0.13,-0.43
3107,0.13,-0.44
3108,0.14,-0.44
3109,0.115,-0.42
3110,0.145,-0.42
3111,0.135,-0.41
3112,0.145,-0.395
3113,0.135,-0.395
3114,0.125,-0.345
3115,0.15,-0.25
3116,0.155,-0.1
3117,0.19,0.155
3118,0.24,0.485
3119,0.335,0.845
3120,0.23,1.045
3121,-0.075,1.23
3122,-0.555,1.415
3123,-1.24,1.65
3124,-1.965,1.79
3125,-2.46,1.79
3126,-2.665,1.74
3127,-2.68,1.655
3128,-2.575,1.505
3129,-2.42,1.31
3130,-2.275,1.175
3131,-2.175,1.025
3132,-2.03,0.89
3133,-1.855,0.925
3134,-1.71,1.09
3135,-1.605,1.365
3136,-1.475,1.47
3137,-1.33,1.23
3138,-1.185,0.66
3139,-1.07,0.055
3140,-0.93,-0.355
3141,-0.78,-0.565
3142,-0.625,-0.61
3143,-0.465,-0.615
3144,-0.295,-0.625
3145,-0.115,-0.62
3146,0.075,-0.575
3147,0.25,-0.54
3148,0.42,-0.545
3149,0.535,-0.545
3150,0.59,-0.53
3151,0.625,-0.53
3152,0.64,-0.515
3153,0.675,-0.515
3154,0.715,-0.49
3155,0.73,-0.48
3156,0.725,-0.48
3157,0.755,-0.47
3158,0.765,-0.47
3159,0.775,-0.47
3160,0.785,-0.465
3161,0.8,-0.46
3162,0.81,-0.45
3163,0.815,-0.45
3164,0.835,-0.46
3165,0.83,-0.44
3166,0.84,-0.435
3167,0.86,-0.425
3168,0.87,-0.46
3169,0.905,-0.47
3170,0.91,-0.465
3171,0.935,-0.46
3172,0.96,-0.49
3173,0.985,-0.5
3174,1,-0.52
3175,1.015,-0.53
3176,1.045,-0.57
3177,1.075,-0.56
3178,1.1,-0.555
3179,1.1,-0.59
3180,1.13,-0.61
3181,1.15,-0.615
3182,1.16,-0.64
3183,1.165,-0.66
3184,1.17,-0.665
3185,1.19,-0.665
3186,1.18,-0.64
3187,1.185,-0.63
3188,1.165,-0.61
3189,1.175,-0.58
3190,1.145,-0.53
3191,1.105,-0.495
3192,1.09,-0.485
3193,1.045,-0.445
3194,1.005,-0.39
3195,0.96,-0.365
3196,0.92,-0.335
3197,0.845,-0.315
3198,0.81,-0.31
3199,0.745,-0.28
3200,0.725,-0.3
3201,0.645,-0.295
3202,0.615,-0.305
3203,0.55,-0.29
3204,0.51,-0.29
3205,0.48,-0.31
3206,0.43,-0.31
3207,0.405,-0.315
3208,0.365,-0.335
3209,0.35,-0.345
3210,0.335,-0.34
3211,0.305,-0.335
3212,0.305,-0.33
3213,0.27,-0.36
3214,0.24,-0.365
3215,0.235,-0.345
3216,0.26,-0.355
3217,0.245,-0.37
3218,0.24,-0.38
3219,0.24,-0.37
3220,0.245,-0.37
3221,0.225,-0.38
3222,0.26,-0.4
3223,0.245,-0.4
3224,0.235,-0.38
3225,0.235,-0.41
3226,0.25,-0.41
3227,0.235,-0.4
3228,0.245,-0.395
3229,0.25,-0.42
3230,0.25,-0.42
3231,0.25,-0.42
3232,0.265,-0.395
3233,0.255,-0.425
3234,0.25,-0.425
3235,0.26,-0.43
3236,0.275,-0.425
3237,0.27,-0.43
3238,0.25,-0.45
3239,0.27,-0.43
3240,0.275,-0.43
3241,0.255,-0.42
3242,0.245,-0.435
3243,0.255,-0.43
3244,0.255,-0.415
3245,0.255,-0.435
3246,0.235,-0.435
3247,0.265,-0.43
3248,0.26,-0.395
3249,0.27,-0.405
3250,0.265,-0.435
3251,0.27,-0.43
3252,0.25,-0.4
3253,0.26,-0.405
3254,0.26,-0.42
3255,0.26,-0.4
3256,0.245,-0.4
3257,0.245,-0.4
3258,0.245,-0.41
3259,0.265,-0.415
3260,0.235,-0.405
3261,0.25,-0.405
3262,0.235,-0.405
3263,0.23,-0.42
3264,0.235,-0.415
3265,0.245,-0.38
3266,0.255,-0.395
3267,0.23,-0.395
3268,0.235,-0.375
3269,0.255,-0.38
3270,0.235,-0.4
3271,0.23,-0.395
3272,0.23,-0.38
3273,0.245,-0.385
3274,0.235,-0.38
3275,0.22,-0.395
3276,0.23,-0.375
3277,0.22,-0.355
3278,0.21,-0.37
3279,0.215,-0.35
3280,0.195,-0.285
3281,0.22,-0.265
3282,0.225,-0.25
3283,0.235,-0.225
3284,0.305,-0.2
3285,0.305,-0.19
3286,0.335,-0.16
3287,0.39,-0.165
3288,0.385,-0.14
3289,0.38,-0.15
3290,0.375,-0.23
3291,0.355,-0.23
3292,0.32,-0.23
3293,0.29,-0.22
3294,0.26,-0.26
3295,0.245,-0.275
3296,0.245,-0.27
3297,0.215,-0.285
3298,0.2,-0.34
3299,0.18,-0.375
3300,0.195,-0.4
3301,0.2,-0.395
3302,0.205,-0.425
3303,0.205,-0.435
3304,0.195,-0.43
3305,0.19,-0.405
3306,0.19,-0.425
3307,0.175,-0.43
3308,0.185,-0.42
3309,0.17,-0.425
3310,0.175,-0.405
3311,0.19,-0.43
3312,0.165,-0.425
3313,0.17,-0.425
3314,0.165,-0.41
3315,0.175,-0.415
3316,0.18,-0.395
3317,0.18,-0.39
3318,0.175,-0.39
3319,0.185,-0.42
3320,0.175,-0.395
3321,0.185,-0.405
3322,0.175,-0.39
3323,0.18,-0.355
3324,0.17,-0.35
3325,0.21,-0.265
3326,0.195,-0.12
3327,0.21,0.03
3328,0.25,0.255
3329,0.35,0.62
3330,0.38,0.88
3331,0.19,1.035
3332,-0.12,1.18
3333,-0.63,1.36
3334,-1.405,1.58
3335,-2.07,1.69
3336,-2.5,1.645
3337,-2.68,1.59
3338,-2.675,1.475
3339,-2.585,1.3
3340,-2.4,1.13
3341,-2.27,0.955
3342,-2.175,0.79
3343,-2.02,0.705
3344,-1.855,0.755
3345,-1.72,0.925
3346,-1.61,1.145
3347,-1.465,1.265
3348,-1.315,1.03
3349,-1.17,0.545
3350,-1.06,-0.025
3351,-0.93,-0.445
3352,-0.81,-0.655
3353,-0.66,-0.71
3354,-0.515,-0.67
3355,-0.355,-0.62
3356,-0.16,-0.59
3357,0.025,-0.55
3358,0.175,-0.52
3359,0.36,-0.465
3360,0.495,-0.475
3361,0.59,-0.46
3362,0.645,-0.44
3363,0.67,-0.45
3364,0.7,-0.445
3365,0.745,-0.435
3366,0.765,-0.425
3367,0.785,-0.415
3368,0.78,-0.4
3369,0.795,-0.4
3370,0.795,-0.4
3371,0.8,-0.37
3372,0.825,-0.39
3373,0.85,-0.39
3374,0.86,-0.395
3375,0.86,-0.38
3376,0.865,-0.365
3377,0.87,-0.365
3378,0.865,-0.38
3379,0.895,-0.395
3380,0.925,-0.405
3381,0.945,-0.42
3382,0.965,-0.4
3383,1.005,-0.405
3384,1.01,-0.42
3385,1.025,-0.45
3386,1.055,-0.47
3387,1.095,-0.48
3388,1.105,-0.49
3389,1.13,-0.5
3390,1.17,-0.52
3391,1.175,-0.535
3392,1.2,-0.55
3393,1.22,-0.57
3394,1.23,-0.585
3395,1.245,-0.565
3396,1.245,-0.58
3397,1.27,-0.57
3398,1.265,-0.575
3399,1.24,-0.53
3400,1.21,-0.52
3401,1.19,-0.485
3402,1.19,-0.465
3403,1.15,-0.4
3404,1.095,-0.36
3405,1.055,-0.345
3406,0.99,-0.315
3407,0.965,-0.265
3408,0.9,-0.265
3409,0.835,-0.265
3410,0.795,-0.25
3411,0.73,-0.245
3412,0.69,-0.215
3413,0.62,-0.235
3414,0.58,-0.24
3415,0.51,-0.26
3416,0.48,-0.26
3417,0.435,-0.27
3418,0.41,-0.285
3419,0.365,-0.315
3420,0.36,-0.32
3421,0.33,-0.34
3422,0.285,-0.335
3423,0.305,-0.315
3424,0.295,-0.32
3425,0.275,-0.345
3426,0.265,-0.34
3427,0.26,-0.35
3428,0.245,-0.34
3429,0.235,-0.34
3430,0.245,-0.375
3431,0.235,-0.36
3432,0.245,-0.365
3433,0.25,-0.355
3434,0.245,-0.37
3435,0.255,-0.385
3436,0.235,-0.37
3437,0.255,-0.4
3438,0.265,-0.4
3439,0.245,-0.395
3440,0.245,-0.39
3441,0.235,-0.4
3442,0.235,-0.39
3443,0.235,-0.4
3444,0.28,-0.405
3445,0.255,-0.41
3446,0.27,-0.445
3447,0.26,-0.42
3448,0.265,-0.425
3449,0.265,-0.435
3450,0.225,-0.43
3451,0.23,-0.43
3452,0.25,-0.42
3453,0.25,-0.45
3454,0.235,-0.44
3455,0.245,-0.455
3456,0.245,-0.45
3457,0.24,-0.445
3458,0.22,-0.45
3459,0.225,-0.425
3460,0.215,-0.42
3461,0.2,-0.42
3462,0.225,-0.43
3463,0.21,-0.42
3464,0.21,-0.43
3465,0.225,-0.41
3466,0.205,-0.43
3467,0.195,-0.43
3468,0.205,-0.435
3469,0.2,-0.435
3470,0.19,-0.43
3471,0.195,-0.45
3472,0.175,-0.445
3473,0.2,-0.425
3474,0.195,-0.425
3475,0.2,-0.41
3476,0.18,-0.405
3477,0.175,-0.38
3478,0.19,-0.405
3479,0.175,-0.42
3480,0.16,-0.435
3481,0.165,-0.41
3482,0.195,-0.4
3483,0.185,-0.41
3484,0.165,-0.405
3485,0.16,-0.4
3486,0.15,-0.41
3487,0.15,-0.42
3488,0.14,-0.395
3489,0.14,-0.39
3490,0.16,-0.405
3491,0.155,-0.365
3492,0.135,-0.345
3493,0.115,-0.32
3494,0.15,-0.295
3495,0.16,-0.29
3496,0.2,-0.25
3497,0.24,-0.205
3498,0.215,-0.185
3499,0.275,-0.18
3500,0.305,-0.2
3501,0.32,-0.2
3502,0.315,-0.25
3503,0.315,-0.26
3504,0.29,-0.26
3505,0.24,-0.27
3506,0.225,-0.305
3507,0.19,-0.305
3508,0.185,-0.315
3509,0.16,-0.355
3510,0.14,-0.35
3511,0.12,-0.4
3512,0.1,-0.415
3513,0.09,-0.425
3514,0.12,-0.44
3515,0.125,-0.445
3516,0.115,-0.47
3517,0.105,-0.43
3518,0.11,-0.44
3519,0.1,-0.44
3520,0.075,-0.44
3521,0.09,-0.425
3522,0.12,-0.425
3523,0.105,-0.445
3524,0.1,-0.425
3525,0.09,-0.445
3526,0.115,-0.44
3527,0.11,-0.435
3528,0.11,-0.415
3529,0.105,-0.415
3530,0.11,-0.415
3531,0.105,-0.445
3532,0.1,-0.415
3533,0.115,-0.39
3534,0.095,-0.4
3535,0.09,-0.38
3536,0.095,-0.295
3537,0.09,-0.18
3538,0.11,0.03
3539,0.155,0.31
3540,0.265,0.745
3541,0.31,1.08
3542,0.095,1.36
3543,-0.24,1.58
3544,-0.8,1.765
3545,-1.57,2.02
3546,-2.225,2.17
3547,-2.65,2.135
3548,-2.855,2.03
3549,-2.83,1.88
3550,-2.67,1.665
3551,-2.43,1.45
3552,-2.25,1.275
3553,-2.11,1.125
3554,-1.98,1.075
3555,-1.825,1.17
3556,-1.705,1.42
3557,-1.605,1.745
3558,-1.455,1.81
3559,-1.31,1.495
3560,-1.195,0.95
3561,-1.08,0.375
3562,-0.95,-0.11
3563,-0.79,-0.45
3564,-0.635,-0.595
3565,-0.505,-0.61
3566,-0.33,-0.65
3567,-0.155,-0.64
3568,0,-0.62
3569,0.185,-0.61
3570,0.33,-0.6
3571,0.45,-0.59
3572,0.52,-0.595
3573,0.55,-0.59
3574,0.59,-0.59
3575,0.6,-0.585
3576,0.635,-0.52
3577,0.675,-0.535
3578,0.685,-0.535
3579,0.73,-0.535
3580,0.765,-0.51
3581,0.785,-0.515
3582,0.785,-0.52
3583,0.83,-0.495
3584,0.835,-0.49
3585,0.845,-0.46
3586,0.85,-0.455
3587,0.87,-0.455
3588,0.885,-0.46
3589,0.88,-0.465
3590,0.9,-0.475
3591,0.9,-0.46
3592,0.94,-0.465
3593,0.955,-0.475
3594,0.955,-0.51
3595,0.985,-0.505
3596,1.005,-0.52
3597,1.055,-0.515
3598,1.09,-0.53
3599,1.09,-0.555
3600,1.12,-0.57
3601,1.145,-0.585
3602,1.17,-0.6
3603,1.2,-0.605
3604,1.21,-0.605
3605,1.235,-0.61
3606,1.235,-0.605
3607,1.245,-0.625
3608,1.26,-0.605
3609,1.275,-0.57
3610,1.195,-0.555
3611,1.23,-0.535
3612,1.19,-0.49
3613,1.17,-0.43
3614,1.12,-0.39
3615,1.065,-0.385
3616,1.015,-0.35
3617,0.975,-0.3
3618,0.925,-0.27
3619,0.9,-0.26
3620,0.835,-0.255
3621,0.78,-0.255
3622,0.705,-0.235
3623,0.675,-0.235
3624,0.615,-0.265
3625,0.56,-0.27
3626,0.53,-0.265
3627,0.48,-0.3
3628,0.435,-0.31
3629,0.395,-0.31
3630,0.39,-0.305
3631,0.365,-0.295
3632,0.35,-0.29
3633,0.335,-0.32
3634,0.32,-0.32
3635,0.31,-0.34
3636,0.31,-0.345
3637,0.32,-0.34
3638,0.31,-0.345
3639,0.31,-0.365
3640,0.315,-0.36
3641,0.325,-0.35
3642,0.31,-0.35
3643,0.33,-0.35
3644,0.29,-0.37
3645,0.295,-0.355
3646,0.32,-0.36
3647,0.315,-0.38
3648,0.28,-0.425
3649,0.3,-0.385
3650,0.3,-0.395
3651,0.305,-0.405
3652,0.3,-0.42
3653,0.32,-0.405
3654,0.32,-0.43
3655,0.31,-0.44
3656,0.3,-0.445
3657,0.305,-0.435
3658,0.315,-0.435
3659,0.315,-0.425
3660,0.325,-0.43
3661,0.285,-0.43
3662,0.29,-0.425
3663,0.295,-0.44
3664,0.3,-0.455
3665,0.29,-0.445
3666,0.285,-0.445
3667,0.28,-0.44
3668,0.295,-0.445
3669,0.285,-0.455
3670,0.285,-0.45
3671,0.295,-0.44
3672,0.28,-0.46
3673,0.275,-0.43
3674,0.28,-0.435
3675,0.255,-0.44
3676,0.27,-0.455
3677,0.265,-0.43
3678,0.275,-0.42
3679,0.25,-0.445
3680,0.26,-0.435
3681,0.265,-0.445
3682,0.23,-0.425
3683,0.245,-0.42
3684,0.23,-0.445
3685,0.225,-0.425
3686,0.235,-0.415
3687,0.235,-0.43
3688,0.23,-0.435
3689,0.205,-0.42
3690,0.23,-0.41
3691,0.23,-0.41
3692,0.25,-0.425
3693,0.21,-0.41
3694,0.19,-0.425
3695,0.23,-0.42
3696,0.21,-0.405
3697,0.22,-0.41
3698,0.205,-0.405
3699,0.19,-0.42
3700,0.2,-0.44
3701,0.18,-0.385
3702,0.18,-0.335
3703,0.19,-0.32
3704,0.2,-0.305
3705,0.235,-0.29
3706,0.255,-0.275
3707,0.285,-0.22
3708,0.29,-0.21
3709,0.315,-0.195
3710,0.335,-0.19
3711,0.345,-0.205
3712,0.37,-0.235
3713,0.355,-0.255
3714,0.32,-0.25
3715,0.275,-0.27
3716,0.255,-0.285
3717,0.225,-0.32
3718,0.23,-0.32
3719,0.2,-0.345
3720,0.19,-0.375
3721,0.19,-0.405
3722,0.175,-0.435
3723,0.145,-0.45
3724,0.165,-0.455
3725,0.165,-0.46
3726,0.17,-0.455
3727,0.165,-0.475
3728,0.18,-0.48
3729,0.155,-0.455
3730,0.155,-0.465
3731,0.13,-0.47
3732,0.15,-0.475
3733,0.165,-0.47
3734,0.15,-0.455
3735,0.145,-0.47
3736,0.175,-0.44
3737,0.155,-0.45
3738,0.16,-0.45
3739,0.155,-0.475
3740,0.15,-0.47
3741,0.15,-0.455
3742,0.15,-0.44
3743,0.135,-0.435
3744,0.145,-0.44
3745,0.135,-0.415
3746,0.13,-0.35
3747,0.13,-0.24
3748,0.15,-0.07
3749,0.195,0.23
3750,0.295,0.64
3751,0.335,1.02
3752,0.155,1.265
3753,-0.23,1.465
3754,-0.81,1.68
3755,-1.57,1.905
3756,-2.19,2.005
3757,-2.62,1.985
3758,-2.765,1.92
3759,-2.72,1.81
3760,-2.61,1.59
3761,-2.395,1.395
3762,-2.235,1.24
3763,-2.12,1.115
3764,-1.915,1.065
3765,-1.75,1.205
3766,-1.645,1.5
3767,-1.515,1.77
3768,-1.385,1.69
3769,-1.235,1.23
3770,-1.115,0.565
3771,-0.98,-0.015
3772,-0.85,-0.405
3773,-0.69,-0.59
3774,-0.515,-0.625
3775,-0.365,-0.655
3776,-0.18,-0.665
3777,-0.01,-0.64
3778,0.18,-0.62
3779,0.35,-0.58
3780,0.495,-0.585
3781,0.58,-0.61
3782,0.635,-0.6
3783,0.685,-0.605
3784,0.71,-0.595
3785,0.715,-0.6
3786,0.735,-0.575
3787,0.745,-0.585
3788,0.765,-0.56
3789,0.795,-0.57
3790,0.81,-0.545
3791,0.795,-0.52
3792,0.805,-0.53
3793,0.83,-0.54
3794,0.845,-0.51
3795,0.84,-0.525
3796,0.855,-0.535
3797,0.875,-0.535
3798,0.885,-0.53
3799,0.9,-0.53
3800,0.91,-0.52
3801,0.95,-0.545
3802,0.98,-0.54
3803,0.97,-0.56
3804,0.985,-0.575
3805,1.01,-0.605
3806,1.035,-0.6
3807,1.07,-0.63
3808,1.08,-0.63
3809,1.125,-0.635
3810,1.13,-0.66
3811,1.145,-0.68
3812,1.17,-0.705
3813,1.185,-0.71
3814,1.22,-0.715
3815,1.2,-0.72
3816,1.225,-0.73
3817,1.22,-0.71
3818,1.22,-0.68
3819,1.21,-0.625
3820,1.18,-0.625
3821,1.185,-0.555
3822,1.15,-0.515
3823,1.115,-0.475
3824,1.07,-0.45
3825,1.015,-0.39
3826,0.98,-0.34
3827,0.91,-0.335
3828,0.86,-0.295
3829,0.795,-0.275
3830,0.74,-0.27
3831,0.665,-0.275
3832,0.62,-0.28
3833,0.58,-0.28
3834,0.54,-0.265
3835,0.49,-0.265
3836,0.455,-0.3
3837,0.415,-0.28
3838,0.365,-0.295
3839,0.34,-0.29
3840,0.32,-0.305
3841,0.31,-0.3
3842,0.305,-0.3
3843,0.28,-0.32
3844,0.275,-0.335
3845,0.275,-0.32
3846,0.28,-0.315
3847,0.26,-0.34
3848,0.25,-0.345
3849,0.26,-0.35
3850,0.235,-0.345
3851,0.25,-0.355
3852,0.27,-0.355
3853,0.26,-0.36
3854,0.27,-0.355
3855,0.27,-0.365
3856,0.255,-0.39
3857,0.255,-0.365
3858,0.265,-0.36
3859,0.26,-0.385
3860,0.245,-0.395
3861,0.27,-0.405
3862,0.28,-0.36
3863,0.28,-0.375
3864,0.265,-0.38
3865,0.275,-0.41
3866,0.275,-0.395
3867,0.27,-0.4
3868,0.265,-0.4
3869,0.285,-0.4
3870,0.285,-0.395
3871,0.295,-0.385
3872,0.275,-0.39
3873,0.275,-0.395
3874,0.285,-0.385
3875,0.295,-0.38
3876,0.295,-0.415
3877,0.27,-0.41
3878,0.28,-0.39
3879,0.27,-0.37
3880,0.26,-0.42
3881,0.275,-0.39
3882,0.25,-0.375
3883,0.265,-0.385
3884,0.285,-0.38
3885,0.25,-0.375
3886,0.28,-0.385
3887,0.275,-0.38
3888,0.24,-0.385
3889,0.26,-0.4
3890,0.24,-0.385
3891,0.24,-0.37
3892,0.235,-0.38
3893,0.245,-0.37
3894,0.225,-0.36
3895,0.22,-0.37
3896,0.195,-0.39
3897,0.22,-0.355
3898,0.23,-0.365
3899,0.215,-0.345
3900,0.225,-0.35
3901,0.23,-0.37
3902,0.225,-0.36
3903,0.225,-0.34
3904,0.225,-0.365
3905,0.215,-0.35
3906,0.205,-0.335
3907,0.225,-0.34
3908,0.2,-0.33
3909,0.225,-0.295
3910,0.205,-0.26
3911,0.225,-0.24
3912,0.22,-0.22
3913,0.25,-0.195
3914,0.28,-0.17
3915,0.315,-0.14
3916,0.35,-0.125
3917,0.36,-0.13
3918,0.38,-0.14
3919,0.385,-0.14
3920,0.375,-0.18
3921,0.34,-0.19
3922,0.32,-0.205
3923,0.28,-0.23
3924,0.255,-0.265
3925,0.235,-0.26
3926,0.24,-0.275
3927,0.21,-0.3
3928,0.165,-0.36
3929,0.165,-0.41
3930,0.175,-0.415
3931,0.155,-0.395
3932,0.16,-0.415
3933,0.145,-0.42
3934,0.145,-0.39
3935,0.14,-0.405
3936,0.15,-0.39
3937,0.115,-0.41
3938,0.115,-0.4
3939,0.125,-0.42
3940,0.135,-0.415
3941,0.13,-0.415
3942,0.105,-0.415
3943,0.12,-0.41
3944,0.12,-0.42
3945,0.135,-0.415
3946,0.125,-0.42
3947,0.115,-0.41
3948,0.13,-0.41
3949,0.15,-0.39
3950,0.13,-0.4
3951,0.12,-0.375
3952,0.13,-0.37
3953,0.14,-0.32
3954,0.16,-0.225
3955,0.165,-0.08
3956,0.19,0.175
3957,0.245,0.515
3958,0.305,0.845
3959,0.175,1.075
3960,-0.125,1.265
3961,-0.675,1.485
3962,-1.42,1.735
3963,-2.1,1.92
3964,-2.545,1.93
3965,-2.745,1.875
3966,-2.71,1.81
3967,-2.61,1.64
3968,-2.45,1.455
3969,-2.27,1.285
3970,-2.17,1.13
3971,-2.03,1.02
3972,-1.86,0.995
3973,-1.725,1.19
3974,-1.635,1.48
3975,-1.49,1.625
3976,-1.345,1.435
3977,-1.18,0.955
3978,-1.05,0.3
3979,-0.965,-0.205
3980,-0.825,-0.495
3981,-0.68,-0.615
3982,-0.52,-0.605
3983,-0.365,-0.6
3984,-0.175,-0.62
3985,0.025,-0.59
3986,0.195,-0.55
3987,0.39,-0.545
3988,0.505,-0.55
3989,0.575,-0.53
3990,0.63,-0.51
3991,0.665,-0.5
3992,0.675,-0.51
3993,0.715,-0.5
3994,0.73,-0.5
3995,0.73,-0.48
3996,0.775,-0.48
3997,0.78,-0.48
3998,0.76,-0.48
3999,0.79,-0.465
4000,0.785,-0.455
4001,0.81,-0.46
4002,0.82,-0.46
4003,0.83,-0.44
4004,0.85,-0.46
4005,0.865,-0.465
4006,0.885,-0.46
4007,0.905,-0.445
4008,0.92,-0.465
4009,0.96,-0.47
4010,0.98,-0.46
4011,0.995,-0.48
4012,1.025,-0.495
4013,1.06,-0.525
4014,1.085,-0.535
4015,1.095,-0.545
4016,1.135,-0.57
4017,1.145,-0.585
4018,1.185,-0.615
4019,1.185,-0.615
4020,1.195,-0.64
4021,1.23,-0.64
4022,1.25,-0.65
4023,1.24,-0.625
4024,1.235,-0.62
4025,1.24,-0.615
4026,1.24,-0.585
4027,1.22,-0.575
4028,1.21,-0.52
4029,1.19,-0.5
4030,1.145,-0.455
4031,1.11,-0.415
4032,1.055,-0.38
4033,0.995,-0.33
4034,0.95,-0.3
4035,0.91,-0.265
4036,0.845,-0.27
4037,0.79,-0.265
4038,0.75,-0.25
4039,0.665,-0.24
4040,0.635,-0.28
4041,0.57,-0.26
4042,0.54,-0.25
4043,0.49,-0.265
4044,0.44,-0.285
4045,0.39,-0.255
4046,0.405,-0.275
4047,0.355,-0.295
4048,0.335,-0.305
4049,0.325,-0.305
4050,0.33,-0.31
4051,0.315,-0.315
4052,0.315,-0.315
4053,0.3,-0.3
4054,0.305,-0.305
4055,0.285,-0.305
4056,0.28,-0.33
4057,0.28,-0.33
4058,0.285,-0.33
4059,0.285,-0.33
4060,0.305,-0.335
4061,0.31,-0.34
4062,0.3,-0.335
4063,0.305,-0.34
4064,0.31,-0.335
4065,0.29,-0.37
4066,0.29,-0.355
4067,0.32,-0.36
4068,0.305,-0.355
4069,0.285,-0.385
4070,0.315,-0.355
4071,0.315,-0.355
4072,0.32,-0.365
4073,0.315,-0.36
4074,0.32,-0.35
4075,0.335,-0.34
4076,0.32,-0.355
4077,0.325,-0.385
4078,0.325,-0.375
4079,0.33,-0.36
4080,0.33,-0.36
4081,0.315,-0.36
4082,0.33,-0.34
4083,0.315,-0.36
4084,0.3,-0.35
4085,0.305,-0.36
4086,0.315,-0.35
4087,0.325,-0.335
4088,0.315,-0.35
4089,0.29,-0.34
4090,0.295,-0.335
4091,0.28,-0.32
4092,0.305,-0.355
4093,0.29,-0.36
4094,0.295,-0.34
4095,0.29,-0.335
4096,0.29,-0.33
4097,0.27,-0.35
4098,0.275,-0.345
4099,0.285,-0.325
4100,0.28,-0.325
4101,0.265,-0.35
4102,0.255,-0.32
4103,0.275,-0.34
4104,0.27,-0.325
4105,0.27,-0.32
4106,0.27,-0.33
4107,0.24,-0.32
4108,0.265,-0.325
4109,0.23,-0.33
4110,0.24,-0.33
4111,0.22,-0.32
4112,0.255,-0.32
4113,0.24,-0.32
4114,0.225,-0.33
4115,0.225,-0.32
4116,0.235,-0.32
4117,0.225,-0.315
4118,0.24,-0.27
4119,0.23,-0.2
4120,0.23,-0.205
4121,0.25,-0.17
4122,0.28,-0.14
4123,0.325,-0.115
4124,0.35,-0.1
4125,0.37,-0.08
4126,0.38,-0.075
4127,0.42,-0.07
4128,0.44,-0.105
4129,0.415,-0.15
4130,0.39,-0.185
4131,0.33,-0.165
4132,0.3,-0.17
4133,0.28,-0.21
4134,0.29,-0.22
4135,0.24,-0.225
4136,0.225,-0.25
4137,0.2,-0.27
4138,0.2,-0.345
4139,0.2,-0.365
4140,0.2,-0.38
4141,0.21,-0.355
4142,0.19,-0.365
4143,0.19,-0.37
4144,0.18,-0.36
4145,0.16,-0.365
4146,0.18,-0.355
4147,0.2,-0.355
4148,0.195,-0.355
4149,0.19,-0.355
4150,0.155,-0.355
4151,0.205,-0.36
4152,0.175,-0.36
4153,0.175,-0.37
4154,0.195,-0.37
4155,0.2,-0.375
4156,0.19,-0.38
4157,0.18,-0.37
4158,0.175,-0.37
4159,0.175,-0.36
4160,0.18,-0.335
4161,0.17,-0.34
4162,0.2,-0.33
4163,0.185,-0.24
4164,0.195,-0.1
4165,0.19,0.065
4166,0.225,0.325
4167,0.315,0.68
4168,0.35,0.97
4169,0.18,1.18
4170,-0.175,1.36
4171,-0.78,1.575
4172,-1.545,1.805
4173,-2.22,1.88
4174,-2.655,1.835
4175,-2.78,1.75
4176,-2.78,1.61
4177,-2.65,1.42
4178,-2.49,1.22
4179,-2.35,1.065
4180,-2.245,0.89
4181,-2.095,0.82
4182,-1.95,0.9
4183,-1.835,1.13
4184,-1.71,1.4
4185,-1.58,1.45
4186,-1.405,1.13
4187,-1.28,0.6
4188,-1.155,0.045
4189,-0.975,-0.345
4190,-0.85,-0.555
4191,-0.665,-0.61
4192,-0.515,-0.655
4193,-0.335,-0.625
4194,-0.15,-0.59
4195,0.045,-0.56
4196,0.225,-0.525
4197,0.41,-0.515
4198,0.5,-0.52
4199,0.575,-0.525
4200,0.615,-0.5
4201,0.66,-0.485
4202,0.69,-0.49
4203,0.695,-0.48
4204,0.73,-0.425
4205,0.74,-0.43
4206,0.75,-0.43
4207,0.77,-0.435
4208,0.75,-0.44
4209,0.77,-0.43
4210,0.775,-0.405
4211,0.78,-0.42
4212,0.785,-0.38
4213,0.81,-0.365
4214,0.81,-0.36
4215,0.84,-0.365
4216,0.845,-0.385
4217,0.86,-0.375
4218,0.87,-0.365
4219,0.905,-0.39
4220,0.93,-0.385
4221,0.94,-0.385
4222,0.95,-0.41
4223,0.98,-0.42
4224,0.99,-0.45
4225,1.03,-0.47
4226,1.04,-0.455
4227,1.1,-0.48
4228,1.12,-0.505
4229,1.12,-0.52
4230,1.155,-0.5
4231,1.175,-0.545
4232,1.205,-0.57
4233,1.23,-0.555
4234,1.225,-0.54
4235,1.23,-0.54
4236,1.235,-0.515
4237,1.22,-0.52
4238,1.175,-0.5
4239,1.18,-0.485
4240,1.145,-0.45
4241,1.115,-0.415
4242,1.09,-0.4
4243,1.045,-0.355
4244,0.98,-0.335
4245,0.92,-0.3
4246,0.885,-0.275
4247,0.83,-0.265
4248,0.79,-0.24
4249,0.72,-0.25
4250,0.675,-0.23
4251,0.62,-0.23
4252,0.575,-0.265
4253,0.525,-0.26
4254,0.465,-0.28
4255,0.42,-0.285
4256,0.39,-0.29
4257,0.36,-0.315
4258,0.315,-0.32
4259,0.31,-0.32
4260,0.285,-0.305
4261,0.275,-0.32
4262,0.28,-0.345
4263,0.245,-0.35
4264,0.22,-0.355
4265,0.24,-0.345
4266,0.215,-0.345
4267,0.195,-0.355
4268,0.23,-0.365
4269,0.235,-0.38
4270,0.23,-0.37
4271,0.21,-0.36
4272,0.225,-0.385
4273,0.22,-0.39
4274,0.225,-0.37
4275,0.205,-0.4
4276,0.22,-0.4
4277,0.22,-0.4
4278,0.235,-0.4
4279,0.22,-0.37
4280,0.22,-0.395
4281,0.22,-0.415
4282,0.225,-0.42
4283,0.225,-0.41
4284,0.225,-0.43
4285,0.255,-0.405
4286,0.245,-0.42
4287,0.235,-0.415
4288,0.23,-0.435
4289,0.23,-0.45
4290,0.23,-0.42
4291,0.22,-0.405
4292,0.22,-0.45
4293,0.21,-0.45
4294,0.22,-0.445
4295,0.24,-0.44
4296,0.205,-0.425
4297,0.205,-0.41
4298,0.23,-0.4
4299,0.24,-0.415
4300,0.225,-0.405
4301,0.215,-0.435
4302,0.195,-0.435
4303,0.21,-0.42
4304,0.205,-0.42
4305,0.205,-0.41
4306,0.185,-0.39
4307,0.175,-0.405
4308,0.18,-0.43
4309,0.18,-0.4
4310,0.18,-0.4
4311,0.18,-0.405
4312,0.195,-0.385
4313,0.18,-0.41
4314,0.17,-0.41
4315,0.175,-0.405
4316,0.195,-0.405
4317,0.185,-0.39
4318,0.17,-0.39
4319,0.18,-0.38
4320,0.165,-0.385
4321,0.17,-0.365
4322,0.15,-0.39
4323,0.165,-0.365
4324,0.17,-0.355
4325,0.185,-0.35
4326,0.175,-0.35
4327,0.17,-0.385
4328,0.19,-0.36
4329,0.17,-0.36
4330,0.18,-0.36
4331,0.16,-0.32
4332,0.165,-0.295
4333,0.15,-0.28
4334,0.19,-0.26
4335,0.155,-0.23
4336,0.21,-0.205
4337,0.235,-0.19
4338,0.245,-0.15
4339,0.275,-0.145
4340,0.32,-0.14
4341,0.325,-0.14
4342,0.33,-0.165
4343,0.335,-0.2
4344,0.305,-0.24
4345,0.275,-0.21
4346,0.245,-0.235
4347,0.215,-0.27
4348,0.2,-0.25
4349,0.195,-0.28
4350,0.175,-0.325
4351,0.13,-0.335
4352,0.11,-0.335
4353,0.115,-0.39
4354,0.12,-0.395
4355,0.135,-0.405
4356,0.1,-0.41
4357,0.1,-0.43
4358,0.1,-0.445
4359,0.08,-0.405
4360,0.1,-0.385
4361,0.105,-0.405
4362,0.095,-0.43
4363,0.065,-0.41
4364,0.09,-0.41
4365,0.095,-0.43
4366,0.075,-0.405
4367,0.09,-0.405
4368,0.08,-0.39
4369,0.06,-0.395
4370,0.09,-0.43
4371,0.06,-0.41
4372,0.075,-0.395
4373,0.1,-0.36
4374,0.1,-0.38
4375,0.075,-0.37
4376,0.1,-0.36
4377,0.11,-0.315
4378,0.09,-0.24
4379,0.11,-0.13
4380,0.12,0.135
4381,0.155,0.58
4382,0.285,1.015
4383,0.22,1.335
4384,-0.045,1.585
4385,-0.48,1.845
4386,-1.17,2.11
4387,-1.89,2.305
4388,-2.445,2.365
4389,-2.78,2.28
4390,-2.82,2.17
4391,-2.74,1.97
4392,-2.57,1.73
4393,-2.325,1.58
4394,-2.185,1.415
4395,-2.055,1.275
4396,-1.89,1.255
4397,-1.73,1.39
4398,-1.63,1.66
4399,-1.525,1.91
4400,-1.375,1.915
4401,-1.235,1.53
4402,-1.115,0.93
4403,-1.01,0.34
4404,-0.86,-0.11
4405,-0.715,-0.405
4406,-0.56,-0.55
4407,-0.4,-0.6
4408,-0.21,-0.65
4409,-0.065,-0.62
4410,0.1,-0.625
4411,0.26,-0.57
4412,0.395,-0.59
4413,0.52,-0.6
4414,0.57,-0.605
4415,0.605,-0.57
4416,0.63,-0.575
4417,0.63,-0.59
4418,0.655,-0.57
4419,0.665,-0.57
4420,0.69,-0.555
4421,0.7,-0.535
4422,0.7,-0.56
4423,0.725,-0.53
4424,0.72,-0.525
4425,0.76,-0.525
4426,0.775,-0.5
4427,0.78,-0.515
4428,0.795,-0.52
4429,0.79,-0.49
4430,0.805,-0.48
4431,0.82,-0.485
4432,0.845,-0.5
4433,0.845,-0.52
4434,0.87,-0.52
4435,0.885,-0.52
4436,0.9,-0.565
4437,0.92,-0.56
4438,0.94,-0.565
4439,0.975,-0.61
4440,0.97,-0.61
4441,1.005,-0.625
4442,1.055,-0.64
4443,1.075,-0.645
4444,1.07,-0.655
4445,1.095,-0.655
4446,1.125,-0.64
4447,1.125,-0.655
4448,1.14,-0.665
4449,1.15,-0.655
4450,1.13,-0.63
4451,1.125,-0.6
4452,1.115,-0.57
4453,1.095,-0.54
4454,1.07,-0.5
4455,1.025,-0.46
4456,1,-0.415
4457,0.96,-0.415
4458,0.905,-0.365
4459,0.86,-0.32
4460,0.815,-0.31
4461,0.765,-0.31
4462,0.695,-0.295
4463,0.62,-0.28
4464,0.615,-0.285
4465,0.55,-0.28
4466,0.505,-0.28
4467,0.45,-0.275
4468,0.4,-0.29
4469,0.37,-0.3
4470,0.33,-0.29
4471,0.3,-0.33
4472,0.285,-0.34
4473,0.3,-0.36
4474,0.265,-0.33
4475,0.25,-0.34
4476,0.23,-0.345
4477,0.215,-0.355
4478,0.235,-0.35
4479,0.22,-0.345
4480,0.21,-0.335
4481,0.195,-0.365
4482,0.22,-0.36
4483,0.22,-0.355
4484,0.23,-0.355
4485,0.23,-0.38
4486,0.205,-0.385
4487,0.205,-0.385
4488,0.2,-0.38
4489,0.2,-0.385
4490,0.215,-0.39
4491,0.205,-0.42
4492,0.21,-0.405
4493,0.195,-0.405
4494,0.225,-0.41
4495,0.22,-0.415
4496,0.225,-0.41
4497,0.215,-0.45
4498,0.22,-0.445
4499,0.19,-0.435
4500,0.2,-0.43
4501,0.2,-0.425
4502,0.2,-0.45
4503,0.215,-0.435
4504,0.19,-0.44
4505,0.19,-0.43
4506,0.19,-0.435
4507,0.17,-0.445
4508,0.185,-0.445
4509,0.205,-0.465
4510,0.195,-0.45
4511,0.19,-0.45
4512,0.2,-0.46
4513,0.185,-0.445
4514,0.165,-0.435
4515,0.17,-0.43
4516,0.165,-0.425
4517,0.16,-0.45
4518,0.175,-0.445
4519,0.165,-0.425
4520,0.17,-0.425
4521,0.175,-0.44
4522,0.165,-0.425
4523,0.16,-0.425
4524,0.155,-0.415
4525,0.165,-0.425
4526,0.15,-0.415
4527,0.15,-0.4
4528,0.145,-0.425
4529,0.125,-0.41
4530,0.145,-0.405
4531,0.135,-0.415
4532,0.12,-0.405
4533,0.14,-0.405
4534,0.13,-0.385
4535,0.13,-0.395
4536,0.115,-0.4
4537,0.13,-0.395
4538,0.13,-0.39
4539,0.145,-0.375
4540,0.12,-0.39
4541,0.135,-0.385
4542,0.14,-0.37
4543,0.16,-0.36
4544,0.135,-0.315
4545,0.155,-0.28
4546,0.14,-0.27
4547,0.195,-0.25
4548,0.19,-0.23
4549,0.215,-0.185
4550,0.245,-0.14
4551,0.25,-0.145
4552,0.28,-0.14
4553,0.295,-0.165
4554,0.295,-0.205
4555,0.29,-0.205
4556,0.24,-0.23
4557,0.235,-0.235
4558,0.2,-0.255
4559,0.2,-0.26
4560,0.185,-0.275
4561,0.17,-0.295
4562,0.15,-0.32
4563,0.12,-0.365
4564,0.145,-0.405
4565,0.135,-0.425
4566,0.11,-0.425
4567,0.11,-0.38
4568,0.11,-0.405
4569,0.105,-0.415
4570,0.105,-0.405
4571,0.09,-0.395
4572,0.105,-0.405
4573,0.09,-0.395
4574,0.075,-0.395
4575,0.095,-0.385
4576,0.1,-0.4
4577,0.085,-0.395
4578,0.085,-0.4
4579,0.08,-0.385
4580,0.075,-0.385
4581,0.1,-0.39
4582,0.12,-0.365
4583,0.125,-0.385
4584,0.105,-0.375
4585,0.11,-0.36
4586,0.13,-0.35
4587,0.12,-0.315
4588,0.1,-0.275
4589,0.115,-0.15
4590,0.115,0.035
4591,0.175,0.31
4592,0.26,0.61
4593,0.3,0.94
4594,0.09,1.135
4595,-0.26,1.33
4596,-0.84,1.53
4597,-1.585,1.775
4598,-2.24,1.88
4599,-2.65,1.86
4600,-2.775,1.77
4601,-2.73,1.685
4602,-2.605,1.515
4603,-2.4,1.335
4604,-2.265,1.175
4605,-2.16,1.045
4606,-2,0.995
4607,-1.8,1.12
4608,-1.69,1.36
4609,-1.555,1.605
4610,-1.41,1.48
4611,-1.28,1.01
4612,-1.125,0.365
4613,-0.995,-0.135
4614,-0.88,-0.425
4615,-0.705,-0.555
4616,-0.565,-0.575
4617,-0.405,-0.58
4618,-0.235,-0.57
4619,-0.03,-0.545
4620,0.16,-0.52
4621,0.32,-0.515
4622,0.445,-0.51
4623,0.495,-0.51
4624,0.54,-0.485
4625,0.6,-0.505
4626,0.615,-0.48
4627,0.635,-0.47
4628,0.66,-0.465
4629,0.655,-0.47
4630,0.68,-0.445
4631,0.705,-0.435
4632,0.72,-0.435
4633,0.71,-0.425
4634,0.73,-0.43
4635,0.72,-0.415
4636,0.705,-0.435
4637,0.73,-0.415
4638,0.76,-0.415
4639,0.77,-0.43
4640,0.79,-0.425
4641,0.82,-0.43
4642,0.845,-0.45
4643,0.855,-0.435
4644,0.88,-0.465
4645,0.91,-0.465
4646,0.94,-0.485
4647,0.955,-0.49
4648,1,-0.515
4649,0.995,-0.545
4650,1.02,-0.55
4651,1.045,-0.565
4652,1.06,-0.6
4653,1.045,-0.615
4654,1.12,-0.62
4655,1.115,-0.61
4656,1.12,-0.62
4657,1.12,-0.605
4658,1.125,-0.605
4659,1.105,-0.57
4660,1.095,-0.55
4661,1.07,-0.505
4662,1.035,-0.48
4663,1.005,-0.445
4664,0.97,-0.425
4665,0.92,-0.405
4666,0.865,-0.345
4667,0.805,-0.3
4668,0.755,-0.305
4669,0.705,-0.265
4670,0.65,-0.25
4671,0.62,-0.24
4672,0.55,-0.24
4673,0.5,-0.255
4674,0.455,-0.255
4675,0.42,-0.255
4676,0.375,-0.265
4677,0.32,-0.27
4678,0.315,-0.26
4679,0.245,-0.275
4680,0.255,-0.27
4681,0.235,-0.3
4682,0.215,-0.275
4683,0.225,-0.28
4684,0.215,-0.31
4685,0.21,-0.285
4686,0.2,-0.29
4687,0.19,-0.315
4688,0.165,-0.325
4689,0.16,-0.305
4690,0.165,-0.31
4691,0.145,-0.325
4692,0.15,-0.355
4693,0.155,-0.345
4694,0.145,-0.36
4695,0.155,-0.36
4696,0.15,-0.355
4697,0.14,-0.36
4698,0.145,-0.37
4699,0.145,-0.37
4700,0.15,-0.365
4701,0.155,-0.38
4702,0.15,-0.365
4703,0.18,-0.37
4704,0.155,-0.38
4705,0.14,-0.37
4706,0.145,-0.355
4707,0.125,-0.39
4708,0.17,-0.39
4709,0.145,-0.375
4710,0.15,-0.395
4711,0.145,-0.375
4712,0.155,-0.385
4713,0.125,-0.38
4714,0.13,-0.365
4715,0.14,-0.38
4716,0.155,-0.375
4717,0.15,-0.385
4718,0.14,-0.375
4719,0.12,-0.37
4720,0.125,-0.36
4721,0.12,-0.365
4722,0.12,-0.375
4723,0.125,-0.39
4724,0.1,-0.375
4725,0.105,-0.385
4726,0.105,-0.37
4727,0.105,-0.365
4728,0.085,-0.36
4729,0.09,-0.355
4730,0.11,-0.375
4731,0.08,-0.365
4732,0.08,-0.36
4733,0.085,-0.345
4734,0.1,-0.355
4735,0.075,-0.36
4736,0.065,-0.355
4737,0.08,-0.36
4738,0.06,-0.335
4739,0.05,-0.35
4740,0.075,-0.34
4741,0.07,-0.34
4742,0.065,-0.365
4743,0.065,-0.345
4744,0.07,-0.335
4745,0.06,-0.335
4746,0.05,-0.335
4747,0.08,-0.32
4748,0.06,-0.295
4749,0.05,-0.25
4750,0.055,-0.245
4751,0.07,-0.23
4752,0.115,-0.18
4753,0.105,-0.16
4754,0.145,-0.145
4755,0.175,-0.145
4756,0.205,-0.12
4757,0.235,-0.125
4758,0.27,-0.16
4759,0.24,-0.19
4760,0.235,-0.2
4761,0.175,-0.205
4762,0.135,-0.215
4763,0.115,-0.24
4764,0.095,-0.265
4765,0.1,-0.265
4766,0.06,-0.3
4767,0.02,-0.355
4768,0.035,-0.395
4769,0.04,-0.4
4770,0.035,-0.395
4771,0.035,-0.385
4772,0.04,-0.4
4773,0.03,-0.4
4774,0.02,-0.39
4775,0.02,-0.39
4776,0,-0.375
4777,0.025,-0.415
4778,0.04,-0.42
4779,0.04,-0.41
4780,0.02,-0.385
4781,0.035,-0.415
4782,0.035,-0.385
4783,0.04,-0.37
4784,0.05,-0.36
4785,0.035,-0.355
4786,0.045,-0.38
4787,0.04,-0.375
4788,0.035,-0.375
4789,0.045,-0.375
4790,0.045,-0.345
4791,0.04,-0.335
4792,0.03,-0.265
4793,0.045,-0.15
4794,0.055,0.035
4795,0.1,0.29
4796,0.2,0.625
4797,0.195,0.87
4798,-0.01,1.01
4799,-0.4,1.185
4800,-1.065,1.415
4801,-1.83,1.64
4802,-2.46,1.7
4803,-2.82,1.645
4804,-2.92,1.575
4805,-2.84,1.455
4806,-2.705,1.28
4807,-2.53,1.125
4808,-2.42,0.945
4809,-2.295,0.795
4810,-2.08,0.81
4811,-1.965,0.94
4812,-1.835,1.2
4813,-1.69,1.295
4814,-1.53,1.085
4815,-1.345,0.595
4816,-1.24,-0.02
4817,-1.12,-0.44
4818,-0.955,-0.61
4819,-0.78,-0.635
4820,-0.635,-0.6
4821,-0.445,-0.57
4822,-0.235,-0.555
4823,-0.005,-0.5
4824,0.145,-0.49
4825,0.31,-0.48
4826,0.415,-0.455
4827,0.485,-0.455
4828,0.495,-0.445
4829,0.57,-0.43
4830,0.575,-0.41
4831,0.575,-0.39
4832,0.61,-0.43
4833,0.63,-0.405
4834,0.65,-0.37
4835,0.655,-0.375
4836,0.67,-0.365
4837,0.7,-0.375
4838,0.695,-0.365
4839,0.705,-0.36
4840,0.685,-0.36
4841,0.73,-0.375
4842,0.735,-0.345
4843,0.76,-0.35
4844,0.765,-0.375
4845,0.79,-0.36
4846,0.8,-0.385
4847,0.84,-0.385
4848,0.835,-0.385
4849,0.855,-0.4
4850,0.9,-0.415
4851,0.935,-0.42
4852,0.95,-0.45
4853,0.965,-0.47
4854,0.975,-0.475
4855,1.005,-0.46
4856,1.03,-0.5
4857,1.06,-0.51
4858,1.075,-0.525
4859,1.095,-0.525
4860,1.095,-0.55
4861,1.115,-0.56
4862,1.14,-0.545
4863,1.135,-0.54
4864,1.125,-0.495
4865,1.09,-0.48
4866,1.07,-0.475
4867,1.015,-0.44
4868,0.97,-0.405
4869,0.92,-0.36
4870,0.87,-0.315
4871,0.82,-0.285
4872,0.76,-0.28
4873,0.735,-0.255
4874,0.68,-0.225
4875,0.61,-0.225
4876,0.555,-0.205
4877,0.505,-0.205
4878,0.455,-0.225
4879,0.395,-0.23
4880,0.37,-0.24
4881,0.305,-0.26
4882,0.28,-0.25
4883,0.255,-0.24
4884,0.235,-0.26
4885,0.205,-0.27
4886,0.195,-0.27
4887,0.18,-0.295
4888,0.165,-0.29
4889,0.145,-0.285
4890,0.155,-0.3
4891,0.145,-0.275
4892,0.16,-0.31
4893,0.145,-0.315
4894,0.12,-0.31
4895,0.135,-0.33
4896,0.13,-0.34
4897,0.14,-0.33
4898,0.165,-0.32
4899,0.135,-0.32
4900,0.145,-0.33
4901,0.17,-0.32
4902,0.165,-0.33
4903,0.15,-0.355
4904,0.145,-0.36
4905,0.115,-0.355
4906,0.125,-0.355
4907,0.165,-0.36
4908,0.14,-0.37
4909,0.15,-0.365
4910,0.135,-0.34
4911,0.135,-0.35
4912,0.14,-0.355
4913,0.12,-0.35
4914,0.12,-0.35
4915,0.125,-0.33
4916,0.135,-0.345
4917,0.105,-0.345
4918,0.115,-0.345
4919,0.11,-0.365
4920,0.105,-0.35
4921,0.1,-0.355
4922,0.115,-0.35
4923,0.1,-0.36
4924,0.07,-0.37
4925,0.105,-0.355
4926,0.085,-0.345
4927,0.105,-0.345
4928,0.075,-0.355
4929,0.07,-0.345
4930,0.07,-0.355
4931,0.06,-0.35
4932,0.04,-0.35
4933,0.02,-0.345
4934,0.05,-0.34
4935,0.035,-0.345
4936,0.06,-0.355
4937,0.035,-0.355
4938,0.055,-0.345
4939,0.04,-0.33
4940,0.06,-0.34
4941,0.045,-0.35
4942,0.045,-0.32
4943,0.035,-0.335
4944,0.015,-0.34
4945,0.01,-0.365
4946,0.02,-0.325
4947,0.015,-0.335
4948,0.035,-0.35
4949,0.035,-0.36
4950,0.035,-0.345
4951,0.02,-0.35
4952,0.045,-0.34
4953,0.02,-0.35
4954,0.025,-0.32
4955,0.02,-0.33
4956,0.015,-0.345
4957,0,-0.33
4958,0,-0.345
4959,0.005,-0.315
4960,0.01,-0.28
4961,0,-0.23
4962,0.005,-0.215
4963,0.03,-0.21
4964,0.06,-0.18
4965,0.09,-0.16
4966,0.085,-0.125
4967,0.125,-0.13
4968,0.135,-0.155
4969,0.155,-0.165
4970,0.175,-0.19
4971,0.125,-0.21
4972,0.095,-0.235
4973,0.085,-0.24
4974,0.025,-0.265
4975,0.005,-0.275
4976,0.02,-0.29
4977,-0.03,-0.3
4978,-0.05,-0.315
4979,-0.055,-0.345
4980,-0.085,-0.385
4981,-0.07,-0.43
4982,-0.04,-0.41
4983,-0.07,-0.415
4984,-0.07,-0.405
4985,-0.075,-0.41
4986,-0.09,-0.405
4987,-0.09,-0.405
4988,-0.085,-0.4
4989,-0.08,-0.425
4990,-0.085,-0.4
4991,-0.095,-0.41
4992,-0.05,-0.4
4993,-0.07,-0.39
4994,-0.1,-0.405
4995,-0.095,-0.42
4996,-0.095,-0.43
4997,-0.075,-0.425
4998,-0.095,-0.42
4999,-0.075,-0.395
5000,-0.095,-0.395
5001,-0.1,-0.4
5002,-0.085,-0.38
5003,-0.105,-0.36
5004,-0.12,-0.32
5005,-0.085,-0.24
5006,-0.1,-0.08
5007,-0.08,0.155
5008,0,0.485
5009,0.1,0.82
5010,0.005,1.075
5011,-0.295,1.24
5012,-0.735,1.49
5013,-1.435,1.71
5014,-2.145,1.9
5015,-2.67,1.93
5016,-2.95,1.86
5017,-2.995,1.77
5018,-2.915,1.6
5019,-2.79,1.395
5020,-2.57,1.21
5021,-2.465,1.055
5022,-2.345,0.925
5023,-2.18,0.96
5024,-2.01,1.105
5025,-1.89,1.365
5026,-1.775,1.505
5027,-1.655,1.31
5028,-1.465,0.78
5029,-1.345,0.17
5030,-1.215,-0.275
5031,-1.07,-0.54
5032,-0.89,-0.655
5033,-0.75,-0.67
5034,-0.58,-0.665
5035,-0.4,-0.625
5036,-0.22,-0.595
5037,-0.06,-0.595
5038,0.095,-0.555
5039,0.2,-0.535
5040,0.26,-0.525
5041,0.335,-0.535
5042,0.36,-0.545
5043,0.36,-0.505
5044,0.405,-0.47
5045,0.42,-0.51
5046,0.43,-0.505
5047,0.42,-0.475
5048,0.455,-0.465
5049,0.455,-0.46
5050,0.455,-0.44
5051,0.455,-0.435
5052,0.485,-0.425
5053,0.465,-0.425
5054,0.48,-0.415
5055,0.51,-0.405
5056,0.535,-0.395
5057,0.535,-0.38
5058,0.555,-0.34
5059,0.595,-0.32
5060,0.625,-0.31
5061,0.64,-0.3
5062,0.675,-0.28
5063,0.73,-0.26
5064,0.745,-0.205
5065,0.775,-0.16
5066,0.795,-0.175
5067,0.87,-0.215
5068,0.955,-0.22
5069,1.02,-0.24
5070,1.07,-0.265
5071,1.085,-0.35
5072,1.13,-0.43
5073,1.145,-0.49
5074,1.185,-0.545
5075,1.13,-0.55
5076,1.09,-0.585
5077,1.03,-0.6
5078,1.015,-0.6
5079,0.96,-0.59
5080,0.93,-0.605
5081,0.89,-0.585
5082,0.815,-0.56
5083,0.77,-0.535
5084,0.675,-0.5
5085,0.63,-0.485
5086,0.575,-0.445
5087,0.525,-0.44
5088,0.47,-0.395
5089,0.4,-0.38
5090,0.35,-0.375
5091,0.29,-0.37
5092,0.22,-0.375
5093,0.18,-0.35
5094,0.135,-0.37
5095,0.115,-0.385
5096,0.06,-0.38
5097,0.01,-0.37
5098,0.005,-0.39
5099,-0.025,-0.395
5100,-0.055,-0.385
5101,-0.07,-0.405
5102,-0.11,-0.43
5103,-0.08,-0.42
5104,-0.095,-0.39
5105,-0.115,-0.385
5106,-0.12,-0.425
5107,-0.115,-0.45
5108,-0.125,-0.44
5109,-0.135,-0.43
5110,-0.12,-0.43
5111,-0.115,-0.425
5112,-0.13,-0.445
5113,-0.125,-0.445
5114,-0.13,-0.435
5115,-0.13,-0.425
5116,-0.135,-0.425
5117,-0.13,-0.435
5118,-0.13,-0.455
5119,-0.155,-0.445
5120,-0.12,-0.415
5121,-0.15,-0.42
5122,-0.145,-0.43
5123,-0.14,-0.43
5124,-0.135,-0.43
5125,-0.135,-0.42
5126,-0.12,-0.405
5127,-0.12,-0.42
5128,-0.115,-0.42
5129,-0.135,-0.38
5130,-0.12,-0.35
5131,-0.115,-0.225
5132,-0.1,-0.035
5133,-0.085,0.165
5134,-0.03,0.4
5135,0.07,0.605
5136,0.085,0.705
5137,-0.12,0.83
5138,-0.605,0.995
5139,-1.28,1.155
5140,-1.875,1.27
5141,-2.365,1.295
5142,-2.775,1.15
5143,-2.89,1.015
5144,-2.8,0.89
5145,-2.625,0.81
5146,-2.48,0.765
5147,-2.395,0.59
5148,-2.25,0.51
5149,-2.085,0.605
5150,-1.99,0.895
5151,-1.89,1.18
5152,-1.755,1.255
5153,-1.65,0.99
5154,-1.505,0.475
5155,-1.405,-0.08
5156,-1.285,-0.475
5157,-1.165,-0.605
5158,-0.98,-0.635
5159,-0.82,-0.635
5160,-0.61,-0.64
5161,-0.395,-0.605
5162,-0.205,-0.6
5163,-0.045,-0.61
5164,0.075,-0.635
5165,0.155,-0.63
5166,0.18,-0.64
5167,0.235,-0.64
5168,0.28,-0.625
5169,0.295,-0.61
5170,0.305,-0.62
5171,0.34,-0.575
5172,0.365,-0.57
5173,0.375,-0.565
5174,0.355,-0.55
5175,0.365,-0.535
5176,0.39,-0.53
5177,0.405,-0.52
5178,0.395,-0.495
5179,0.42,-0.49
5180,0.425,-0.49
5181,0.42,-0.48
5182,0.44,-0.465
5183,0.45,-0.475
5184,0.485,-0.475
5185,0.485,-0.47
5186,0.51,-0.46
5187,0.52,-0.465
5188,0.545,-0.495
5189,0.55,-0.505
5190,0.585,-0.515
5191,0.63,-0.53
5192,0.615,-0.56
5193,0.625,-0.605
5194,0.65,-0.59
5195,0.675,-0.63
5196,0.69,-0.64
5197,0.705,-0.68
5198,0.71,-0.68
5199,0.71,-0.685
5200,0.71,-0.695
5201,0.7,-0.7
5202,0.695,-0.665
5203,0.685,-0.635
5204,0.655,-0.625
5205,0.645,-0.61
5206,0.62,-0.57
5207,0.57,-0.54
5208,0.535,-0.51
5209,0.515,-0.5
5210,0.47,-0.44
5211,0.4,-0.425
5212,0.36,-0.4
5213,0.315,-0.415
5214,0.245,-0.385
5215,0.22,-0.365
5216,0.16,-0.365
5217,0.14,-0.38
5218,0.075,-0.37
5219,0.055,-0.37
5220,0,-0.37
5221,-0.025,-0.39
5222,-0.08,-0.375
5223,-0.075,-0.385
5224,-0.1,-0.39
5225,-0.12,-0.39
5226,-0.115,-0.43
5227,-0.14,-0.385
5228,-0.135,-0.41
5229,-0.14,-0.415
5230,-0.175,-0.405
5231,-0.16,-0.4
5232,-0.165,-0.41
5233,-0.165,-0.41
5234,-0.18,-0.415
5235,-0.19,-0.4
5236,-0.195,-0.41
5237,-0.205,-0.415
5238,-0.2,-0.405
5239,-0.195,-0.415
5240,-0.19,-0.39
5241,-0.19,-0.415
5242,-0.19,-0.425
5243,-0.215,-0.43
5244,-0.19,-0.41
5245,-0.18,-0.415
5246,-0.21,-0.42
5247,-0.21,-0.415
5248,-0.21,-0.425
5249,-0.2,-0.42
5250,-0.175,-0.43
5251,-0.2,-0.44
5252,-0.205,-0.415
5253,-0.195,-0.425
5254,-0.215,-0.435
5255,-0.205,-0.43
5256,-0.225,-0.4
5257,-0.245,-0.4
5258,-0.215,-0.405
5259,-0.23,-0.39
5260,-0.23,-0.4
5261,-0.225,-0.4
5262,-0.22,-0.405
5263,-0.235,-0.41
5264,-0.225,-0.4
5265,-0.225,-0.41
5266,-0.22,-0.41
5267,-0.21,-0.41
5268,-0.2,-0.39
5269,-0.2,-0.38
5270,-0.21,-0.4
5271,-0.22,-0.4
5272,-0.215,-0.39
5273,-0.21,-0.4
5274,-0.22,-0.4
5275,-0.21,-0.39
5276,-0.19,-0.4
5277,-0.215,-0.41
5278,-0.23,-0.41
5279,-0.205,-0.375
5280,-0.215,-0.4
5281,-0.2,-0.39
5282,-0.18,-0.4
5283,-0.195,-0.405
5284,-0.215,-0.4
5285,-0.185,-0.415
5286,-0.18,-0.4
5287,-0.185,-0.41
5288,-0.195,-0.415
5289,-0.19,-0.41
5290,-0.185,-0.41
5291,-0.19,-0.42
5292,-0.185,-0.415
5293,-0.2,-0.405
5294,-0.18,-0.4
5295,-0.185,-0.39
5296,-0.2,-0.405
5297,-0.18,-0.39
5298,-0.165,-0.395
5299,-0.175,-0.405
5300,-0.19,-0.405
5301,-0.16,-0.375
5302,-0.19,-0.405
5303,-0.2,-0.4
5304,-0.2,-0.385
5305,-0.21,-0.37
5306,-0.19,-0.385
5307,-0.2,-0.385
5308,-0.215,-0.41
5309,-0.18,-0.395
5310,-0.165,-0.37
5311,-0.165,-0.4
5312,-0.18,-0.4
5313,-0.185,-0.395
5314,-0.19,-0.37
5315,-0.19,-0.38
5316,-0.185,-0.39
5317,-0.2,-0.375
5318,-0.19,-0.385
5319,-0.18,-0.37
5320,-0.18,-0.38
5321,-0.16,-0.37
5322,-0.185,-0.34
5323,-0.185,-0.365
5324,-0.205,-0.36
5325,-0.18,-0.36
5326,-0.19,-0.35
5327,-0.205,-0.365
5328,-0.175,-0.37
5329,-0.17,-0.365
5330,-0.185,-0.365
5331,-0.145,-0.345
5332,-0.17,-0.355
5333,-0.155,-0.345
5334,-0.155,-0.355
5335,-0.18,-0.33
5336,-0.16,-0.35
5337,-0.16,-0.33
5338,-0.16,-0.3
5339,-0.15,-0.27
5340,-0.15,-0.245
5341,-0.135,-0.245
5342,-0.13,-0.225
5343,-0.095,-0.2
5344,-0.085,-0.18
5345,-0.07,-0.16
5346,-0.055,-0.145
5347,-0.025,-0.145
5348,-0.01,-0.13
5349,0,-0.17
5350,0,-0.195
5351,-0.015,-0.185
5352,-0.055,-0.19
5353,-0.1,-0.23
5354,-0.1,-0.235
5355,-0.11,-0.27
5356,-0.12,-0.27
5357,-0.15,-0.315
5358,-0.185,-0.355
5359,-0.185,-0.38
5360,-0.165,-0.37
5361,-0.17,-0.405
5362,-0.185,-0.4
5363,-0.165,-0.395
5364,-0.19,-0.39
5365,-0.185,-0.39
5366,-0.19,-0.39
5367,-0.2,-0.375
5368,-0.205,-0.4
5369,-0.205,-0.41
5370,-0.185,-0.4
5371,-0.2,-0.39
5372,-0.19,-0.37
5373,-0.2,-0.395
5374,-0.2,-0.39
5375,-0.17,-0.385
5376,-0.175,-0.37
5377,-0.215,-0.38
5378,-0.185,-0.385
5379,-0.175,-0.375
5380,-0.22,-0.365
5381,-0.195,-0.365
5382,-0.185,-0.355
5383,-0.14,-0.295
5384,-0.18,-0.185
5385,-0.16,-0.045
5386,-0.13,0.205
5387,-0.065,0.605
5388,-0.005,0.985
5389,-0.105,1.205
5390,-0.4,1.36
5391,-0.855,1.505
5392,-1.505,1.71
5393,-2.175,1.875
5394,-2.66,1.88
5395,-2.925,1.82
5396,-2.99,1.77
5397,-2.9,1.61
5398,-2.725,1.405
5399,-2.51,1.29
5400,-2.4,1.155
5401,-2.26,1.025
5402,-2.075,1.07
5403,-1.91,1.27
5404,-1.835,1.59
5405,-1.715,1.79
5406,-1.555,1.63
5407,-1.4,1.095
5408,-1.28,0.435
5409,-1.185,-0.13
5410,-1.065,-0.48
5411,-0.915,-0.62
5412,-0.77,-0.62
5413,-0.61,-0.615
5414,-0.45,-0.58
5415,-0.255,-0.535
5416,-0.1,-0.515
5417,0.07,-0.515
5418,0.18,-0.52
5419,0.24,-0.495
5420,0.295,-0.5
5421,0.33,-0.49
5422,0.35,-0.49
5423,0.385,-0.495
5424,0.385,-0.49
5425,0.41,-0.475
5426,0.42,-0.46
5427,0.44,-0.46
5428,0.44,-0.44
5429,0.45,-0.44
5430,0.47,-0.445
5431,0.47,-0.435
5432,0.49,-0.41
5433,0.485,-0.425
5434,0.505,-0.415
5435,0.505,-0.405
5436,0.55,-0.415
5437,0.555,-0.41
5438,0.575,-0.4
5439,0.595,-0.415
5440,0.61,-0.415
5441,0.62,-0.43
5442,0.64,-0.445
5443,0.655,-0.46
5444,0.7,-0.465
5445,0.7,-0.495
5446,0.73,-0.51
5447,0.745,-0.545
5448,0.765,-0.56
5449,0.78,-0.57
5450,0.8,-0.575
5451,0.825,-0.595
5452,0.855,-0.625
5453,0.875,-0.605
5454,0.89,-0.64
5455,0.91,-0.66
5456,0.93,-0.645
5457,0.91,-0.62
5458,0.92,-0.605
5459,0.915,-0.605
5460,0.89,-0.585
5461,0.855,-0.53
5462,0.835,-0.49
5463,0.795,-0.48
5464,0.74,-0.445
5465,0.715,-0.4
5466,0.68,-0.37
5467,0.62,-0.33
5468,0.56,-0.305
5469,0.54,-0.27
5470,0.485,-0.26
5471,0.415,-0.255
5472,0.35,-0.24
5473,0.32,-0.225
5474,0.29,-0.225
5475,0.23,-0.21
5476,0.18,-0.235
5477,0.12,-0.22
5478,0.115,-0.235
5479,0.085,-0.255
5480,0.04,-0.275
5481,0.035,-0.26
5482,0.025,-0.245
5483,0.005,-0.26
5484,-0.005,-0.29
5485,-0.035,-0.29
5486,-0.015,-0.285
5487,-0.02,-0.295
5488,-0.04,-0.295
5489,-0.02,-0.3
5490,-0.055,-0.3
5491,-0.045,-0.33
5492,-0.045,-0.305
5493,-0.05,-0.325
5494,-0.045,-0.32
5495,-0.05,-0.335
5496,-0.065,-0.34
5497,-0.055,-0.355
5498,-0.02,-0.36
5499,-0.02,-0.37
5500,-0.045,-0.37
5501,-0.04,-0.375
5502,-0.04,-0.365
5503,-0.025,-0.38
5504,-0.025,-0.39
5505,-0.025,-0.38
5506,-0.02,-0.38
5507,-0.005,-0.385
5508,-0.04,-0.415
5509,-0.03,-0.405
5510,-0.045,-0.415
5511,-0.03,-0.405
5512,-0.025,-0.405
5513,-0.045,-0.405
5514,-0.03,-0.4
5515,-0.02,-0.415
5516,-0.03,-0.425
5517,-0.03,-0.42
5518,-0.03,-0.405
5519,-0.025,-0.42
5520,-0.035,-0.425
5521,-0.05,-0.405
5522,-0.025,-0.4
5523,-0.05,-0.4
5524,-0.055,-0.39
5525,-0.065,-0.42
5526,-0.055,-0.395
5527,-0.065,-0.4
5528,-0.06,-0.42
5529,-0.07,-0.4
5530,-0.08,-0.385
5531,-0.08,-0.375
5532,-0.08,-0.38
5533,-0.085,-0.39
5534,-0.105,-0.38
5535,-0.105,-0.36
5536,-0.075,-0.375
5537,-0.075,-0.4
5538,-0.08,-0.345
5539,-0.08,-0.37
5540,-0.08,-0.35
5541,-0.08,-0.37
5542,-0.1,-0.365
5543,-0.1,-0.365
5544,-0.105,-0.365
5545,-0.095,-0.365
5546,-0.11,-0.35
5547,-0.09,-0.345
5548,-0.12,-0.355
5549,-0.1,-0.345
5550,-0.14,-0.35
5551,-0.13,-0.335
5552,-0.135,-0.345
5553,-0.13,-0.35
5554,-0.14,-0.345
5555,-0.12,-0.345
5556,-0.14,-0.335
5557,-0.13,-0.335
5558,-0.13,-0.34
5559,-0.12,-0.32
5560,-0.12,-0.305
5561,-0.12,-0.33
5562,-0.115,-0.35
5563,-0.115,-0.305
5564,-0.115,-0.33
5565,-0.125,-0.32
5566,-0.14,-0.315
5567,-0.1,-0.315
5568,-0.1,-0.32
5569,-0.11,-0.32
5570,-0.105,-0.325
5571,-0.105,-0.305
5572,-0.105,-0.31
5573,-0.11,-0.335
5574,-0.105,-0.32
5575,-0.09,-0.31
5576,-0.08,-0.295
5577,-0.095,-0.315
5578,-0.12,-0.305
5579,-0.115,-0.275
5580,-0.095,-0.29
5581,-0.07,-0.295
5582,-0.08,-0.315
5583,-0.07,-0.29
5584,-0.07,-0.25
5585,-0.095,-0.22
5586,-0.08,-0.195
5587,-0.06,-0.165
5588,-0.03,-0.14
5589,0,-0.135
5590,0.01,-0.12
5591,0.05,-0.11
5592,0.07,-0.08
5593,0.09,-0.11
5594,0.09,-0.12
5595,0.07,-0.155
5596,0.05,-0.15
5597,0,-0.175
5598,-0.055,-0.185
5599,-0.07,-0.22
5600,-0.05,-0.205
5601,-0.06,-0.2
5602,-0.08,-0.26
5603,-0.105,-0.29
5604,-0.115,-0.32
5605,-0.09,-0.34
5606,-0.11,-0.365
5607,-0.115,-0.345
5608,-0.115,-0.35
5609,-0.13,-0.36
5610,-0.1,-0.35
5611,-0.12,-0.34
5612,-0.125,-0.345
5613,-0.14,-0.34
5614,-0.125,-0.36
5615,-0.125,-0.37
5616,-0.15,-0.36
5617,-0.12,-0.36
5618,-0.12,-0.355
5619,-0.12,-0.355
5620,-0.11,-0.345
5621,-0.125,-0.36
5622,-0.1,-0.365
5623,-0.14,-0.345
5624,-0.14,-0.33
5625,-0.13,-0.335
5626,-0.135,-0.335
5627,-0.155,-0.275
5628,-0.16,-0.205
5629,-0.135,-0.07
5630,-0.135,0.11
5631,-0.075,0.39
5632,0.03,0.73
5633,0.035,0.955
5634,-0.215,1.12
5635,-0.57,1.275
5636,-1.165,1.435
5637,-1.95,1.65
5638,-2.56,1.73
5639,-2.9,1.67
5640,-3.01,1.575
5641,-2.955,1.42
5642,-2.83,1.225
5643,-2.655,1.07
5644,-2.55,0.925
5645,-2.445,0.775
5646,-2.28,0.765
5647,-2.12,0.91
5648,-2.01,1.16
5649,-1.85,1.3
5650,-1.685,1.08
5651,-1.525,0.57
5652,-1.39,-0.025
5653,-1.26,-0.435
5654,-1.115,-0.635
5655,-0.955,-0.64
5656,-0.785,-0.57
5657,-0.61,-0.555
5658,-0.415,-0.52
5659,-0.23,-0.495
5660,-0.085,-0.45
5661,0.105,-0.44
5662,0.22,-0.44
5663,0.275,-0.42
5664,0.315,-0.4
5665,0.375,-0.415
5666,0.375,-0.39
5667,0.41,-0.395
5668,0.405,-0.39
5669,0.43,-0.375
5670,0.455,-0.38
5671,0.465,-0.365
5672,0.46,-0.34
5673,0.465,-0.355
5674,0.49,-0.355
5675,0.525,-0.34
5676,0.49,-0.335
5677,0.505,-0.34
5678,0.535,-0.34
5679,0.545,-0.355
5680,0.57,-0.34
5681,0.58,-0.32
5682,0.62,-0.345
5683,0.615,-0.355
5684,0.66,-0.365
5685,0.665,-0.36
5686,0.705,-0.39
5687,0.715,-0.39
5688,0.74,-0.415
5689,0.765,-0.415
5690,0.78,-0.44
5691,0.795,-0.455
5692,0.835,-0.465
5693,0.86,-0.48
5694,0.895,-0.495
5695,0.905,-0.5
5696,0.9,-0.485
5697,0.91,-0.52
5698,0.92,-0.53
5699,0.925,-0.515
5700,0.885,-0.49
5701,0.9,-0.46
5702,0.885,-0.45
5703,0.85,-0.4
5704,0.815,-0.385
5705,0.79,-0.34
5706,0.75,-0.31
5707,0.705,-0.255
5708,0.66,-0.24
5709,0.605,-0.25
5710,0.58,-0.215
5711,0.51,-0.185
5712,0.45,-0.195
5713,0.4,-0.175
5714,0.355,-0.19
5715,0.305,-0.205
5716,0.265,-0.225
5717,0.2,-0.235
5718,0.17,-0.23
5719,0.15,-0.23
5720,0.095,-0.225
5721,0.07,-0.255
5722,0.04,-0.27
5723,0.035,-0.27
5724,0.03,-0.27
5725,0,-0.27
5726,-0.01,-0.285
5727,-0.015,-0.285
5728,-0.015,-0.31
5729,0,-0.31
5730,-0.03,-0.295
5731,-0.04,-0.31
5732,-0.035,-0.33
5733,-0.03,-0.335
5734,-0.04,-0.32
5735,-0.02,-0.315
5736,-0.04,-0.34
5737,-0.055,-0.36
5738,-0.03,-0.35
5739,-0.035,-0.33
5740,-0.025,-0.355
5741,-0.04,-0.35
5742,-0.055,-0.36
5743,-0.03,-0.38
5744,-0.01,-0.38
5745,-0.03,-0.36
5746,-0.025,-0.365
5747,-0.025,-0.375
5748,-0.035,-0.4
5749,-0.04,-0.4
5750,-0.04,-0.38
5751,-0.025,-0.37
5752,-0.04,-0.37
5753,-0.02,-0.41
5754,-0.03,-0.385
5755,-0.035,-0.39
5756,-0.035,-0.37
5757,-0.035,-0.37
5758,-0.02,-0.35
5759,-0.055,-0.36
5760,-0.045,-0.385
5761,-0.05,-0.37
5762,-0.06,-0.375
5763,-0.07,-0.37
5764,-0.065,-0.36
5765,-0.07,-0.36
5766,-0.065,-0.355
5767,-0.06,-0.35
5768,-0.09,-0.35
5769,-0.08,-0.375
5770,-0.09,-0.365
5771,-0.1,-0.355
5772,-0.1,-0.365
5773,-0.115,-0.36
5774,-0.105,-0.33
5775,-0.115,-0.35
5776,-0.09,-0.365
5777,-0.12,-0.35
5778,-0.095,-0.35
5779,-0.12,-0.355
5780,-0.115,-0.37
5781,-0.115,-0.34
5782,-0.115,-0.33
5783,-0.125,-0.345
5784,-0.12,-0.34
5785,-0.145,-0.335
5786,-0.135,-0.33
5787,-0.135,-0.355
5788,-0.13,-0.36
5789,-0.14,-0.36
5790,-0.13,-0.33
5791,-0.145,-0.345
5792,-0.13,-0.345
5793,-0.135,-0.34
5794,-0.13,-0.335
5795,-0.135,-0.33
5796,-0.145,-0.345
5797,-0.135,-0.32
5798,-0.145,-0.335
5799,-0.155,-0.34
5800,-0.155,-0.355
5801,-0.15,-0.335
5802,-0.145,-0.32
5803,-0.135,-0.32
5804,-0.14,-0.315
5805,-0.155,-0.305
5806,-0.15,-0.315
5807,-0.15,-0.32
5808,-0.15,-0.325
5809,-0.15,-0.315
5810,-0.16,-0.315
5811,-0.185,-0.33
5812,-0.155,-0.295
5813,-0.15,-0.265
5814,-0.14,-0.225
5815,-0.13,-0.235
5816,-0.1,-0.19
5817,-0.075,-0.15
5818,-0.07,-0.145
5819,-0.025,-0.12
5820,-0.015,-0.135
5821,0.015,-0.135
5822,0.04,-0.16
5823,0.03,-0.18
5824,-0.02,-0.205
5825,-0.05,-0.195
5826,-0.08,-0.215
5827,-0.115,-0.25
5828,-0.095,-0.26
5829,-0.135,-0.3
5830,-0.145,-0.28
5831,-0.16,-0.315
5832,-0.18,-0.34
5833,-0.185,-0.355
5834,-0.185,-0.36
5835,-0.165,-0.385
5836,-0.145,-0.385
5837,-0.16,-0.355
5838,-0.16,-0.37
5839,-0.165,-0.36
5840,-0.185,-0.395
5841,-0.21,-0.365
5842,-0.17,-0.375
5843,-0.175,-0.365
5844,-0.18,-0.355
5845,-0.185,-0.375
5846,-0.175,-0.36
5847,-0.175,-0.35
5848,-0.17,-0.36
5849,-0.185,-0.36
5850,-0.17,-0.36
5851,-0.185,-0.36
5852,-0.165,-0.365
5853,-0.17,-0.355
5854,-0.19,-0.335
5855,-0.13,-0.3
5856,-0.15,-0.24
5857,-0.175,-0.095
5858,-0.155,0.08
5859,-0.12,0.415
5860,-0.025,0.82
5861,0.015,1.135
5862,-0.2,1.36
5863,-0.59,1.57
5864,-1.235,1.78
5865,-1.975,1.985
5866,-2.575,2.02
5867,-2.905,1.945
5868,-3.015,1.83
5869,-2.895,1.66
5870,-2.73,1.41
5871,-2.565,1.25
5872,-2.47,1.07
5873,-2.36,0.965
5874,-2.175,0.99
5875,-2.025,1.165
5876,-1.925,1.45
5877,-1.815,1.615
5878,-1.655,1.41
5879,-1.515,0.9
5880,-1.395,0.28
5881,-1.265,-0.2
5882,-1.115,-0.48
5883,-0.945,-0.59
5884,-0.78,-0.615
5885,-0.635,-0.6
5886,-0.42,-0.6
5887,-0.23,-0.55
5888,-0.08,-0.52
5889,0.045,-0.505
5890,0.15,-0.515
5891,0.215,-0.5
5892,0.245,-0.48
5893,0.285,-0.465
5894,0.31,-0.49
5895,0.34,-0.455
5896,0.345,-0.44
5897,0.345,-0.44
5898,0.365,-0.445
5899,0.39,-0.41
5900,0.4,-0.385
5901,0.385,-0.395
5902,0.405,-0.36
5903,0.41,-0.39
5904,0.44,-0.375
5905,0.425,-0.38
5906,0.43,-0.355
5907,0.445,-0.355
5908,0.455,-0.355
5909,0.485,-0.37
5910,0.49,-0.35
5911,0.535,-0.385
5912,0.54,-0.375
5913,0.57,-0.41
5914,0.585,-0.405
5915,0.64,-0.45
5916,0.645,-0.46
5917,0.66,-0.48
5918,0.68,-0.485
5919,0.735,-0.515
5920,0.75,-0.51
5921,0.75,-0.52
5922,0.785,-0.515
5923,0.8,-0.535
5924,0.805,-0.52
5925,0.815,-0.525
5926,0.83,-0.53
5927,0.79,-0.475
5928,0.77,-0.48
5929,0.765,-0.445
5930,0.72,-0.42
5931,0.69,-0.375
5932,0.69,-0.34
5933,0.63,-0.3
5934,0.615,-0.26
5935,0.555,-0.225
5936,0.5,-0.21
5937,0.46,-0.2
5938,0.385,-0.21
5939,0.32,-0.205
5940,0.295,-0.185
5941,0.22,-0.19
5942,0.195,-0.195
5943,0.15,-0.21
5944,0.09,-0.225
5945,0.065,-0.21
5946,0.03,-0.23
5947,0.005,-0.24
5948,-0.03,-0.24
5949,-0.06,-0.24
5950,-0.05,-0.27
5951,-0.08,-0.265
5952,-0.1,-0.275
5953,-0.105,-0.29
5954,-0.115,-0.295
5955,-0.105,-0.295
5956,-0.135,-0.3
5957,-0.105,-0.305
5958,-0.14,-0.315
5959,-0.13,-0.315
5960,-0.135,-0.32
5961,-0.135,-0.31
5962,-0.145,-0.32
5963,-0.14,-0.33
5964,-0.15,-0.35
5965,-0.13,-0.37
5966,-0.12,-0.38
5967,-0.11,-0.35
5968,-0.13,-0.35
5969,-0.125,-0.355
5970,-0.11,-0.36
5971,-0.12,-0.37
5972,-0.1,-0.385
5973,-0.1,-0.375
5974,-0.095,-0.38
5975,-0.115,-0.39
5976,-0.13,-0.385
5977,-0.135,-0.405
5978,-0.08,-0.41
5979,-0.125,-0.38
5980,-0.145,-0.39
5981,-0.135,-0.39
5982,-0.14,-0.395
5983,-0.15,-0.405
5984,-0.145,-0.405
5985,-0.13,-0.415
5986,-0.155,-0.39
5987,-0.16,-0.38
5988,-0.155,-0.39
5989,-0.165,-0.39
5990,-0.175,-0.38
5991,-0.175,-0.385
5992,-0.18,-0.39
5993,-0.19,-0.4
5994,-0.175,-0.385
5995,-0.16,-0.375
5996,-0.18,-0.38
5997,-0.18,-0.38
5998,-0.16,-0.36
5999,-0.17,-0.36
6000,-0.18,-0.385
6001,-0.185,-0.375
6002,-0.19,-0.375
6003,-0.185,-0.38
6004,-0.19,-0.375
6005,-0.2,-0.375
6006,-0.18,-0.35
6007,-0.195,-0.355
6008,-0.195,-0.38
6009,-0.215,-0.38
6010,-0.215,-0.375
6011,-0.195,-0.355
6012,-0.205,-0.365
6013,-0.2,-0.375
6014,-0.23,-0.355
6015,-0.21,-0.33
6016,-0.195,-0.36
6017,-0.23,-0.385
6018,-0.21,-0.37
6019,-0.235,-0.345
6020,-0.23,-0.355
6021,-0.215,-0.36
6022,-0.205,-0.36
6023,-0.185,-0.355
6024,-0.215,-0.35
6025,-0.22,-0.36
6026,-0.205,-0.345
6027,-0.205,-0.34
6028,-0.19,-0.36
6029,-0.21,-0.345
6030,-0.2,-0.34
6031,-0.205,-0.305
6032,-0.215,-0.32
6033,-0.22,-0.3
6034,-0.22,-0.26
6035,-0.205,-0.225
6036,-0.175,-0.225
6037,-0.185,-0.2
6038,-0.145,-0.165
6039,-0.11,-0.135
6040,-0.095,-0.135
6041,-0.06,-0.14
6042,-0.045,-0.125
6043,-0.035,-0.165
6044,-0.04,-0.21
6045,-0.065,-0.225
6046,-0.105,-0.22
6047,-0.11,-0.22
6048,-0.155,-0.275
6049,-0.13,-0.29
6050,-0.14,-0.28
6051,-0.18,-0.315
6052,-0.225,-0.33
6053,-0.235,-0.385
6054,-0.23,-0.385
6055,-0.23,-0.395
6056,-0.22,-0.405
6057,-0.235,-0.405
6058,-0.225,-0.415
6059,-0.23,-0.395
6060,-0.225,-0.42
6061,-0.245,-0.42
6062,-0.225,-0.395
6063,-0.225,-0.385
6064,-0.22,-0.405
6065,-0.23,-0.415
6066,-0.215,-0.42
6067,-0.21,-0.395
6068,-0.225,-0.385
6069,-0.22,-0.395
6070,-0.23,-0.41
6071,-0.2,-0.39
6072,-0.195,-0.375
6073,-0.215,-0.385
6074,-0.23,-0.38
6075,-0.225,-0.37
6076,-0.205,-0.385
6077,-0.22,-0.355
6078,-0.225,-0.275
6079,-0.195,-0.15
6080,-0.17,0.035
6081,-0.13,0.33
6082,-0.04,0.715
6083,-0.03,1.1
6084,-0.24,1.345
6085,-0.565,1.535
6086,-1.08,1.735
6087,-1.795,1.95
6088,-2.405,2.07
6089,-2.81,2.03
6090,-2.97,1.935
6091,-2.93,1.83
6092,-2.82,1.61
6093,-2.64,1.4
6094,-2.48,1.235
6095,-2.39,1.08
6096,-2.23,1.02
6097,-2.08,1.11
6098,-1.96,1.33
6099,-1.83,1.615
6100,-1.73,1.68
6101,-1.58,1.345
6102,-1.455,0.775
6103,-1.305,0.205
6104,-1.175,-0.215
6105,-1.075,-0.48
6106,-0.905,-0.575
6107,-0.745,-0.57
6108,-0.59,-0.59
6109,-0.41,-0.585
6110,-0.235,-0.545
6111,-0.085,-0.515
6112,0.06,-0.51
6113,0.17,-0.5
6114,0.225,-0.515
6115,0.275,-0.505
6116,0.305,-0.475
6117,0.335,-0.485
6118,0.355,-0.48
6119,0.335,-0.46
6120,0.365,-0.46
6121,0.39,-0.445
6122,0.39,-0.455
6123,0.42,-0.455
6124,0.42,-0.415
6125,0.42,-0.42
6126,0.43,-0.425
6127,0.425,-0.435
6128,0.45,-0.42
6129,0.46,-0.43
6130,0.455,-0.43
6131,0.47,-0.41
6132,0.5,-0.42
6133,0.515,-0.42
6134,0.55,-0.43
6135,0.555,-0.445
6136,0.595,-0.445
6137,0.6,-0.45
6138,0.64,-0.48
6139,0.655,-0.495
6140,0.665,-0.495
6141,0.685,-0.49
6142,0.725,-0.525
6143,0.71,-0.545
6144,0.74,-0.565
6145,0.75,-0.56
6146,0.785,-0.58
6147,0.805,-0.58
6148,0.81,-0.605
6149,0.835,-0.6
6150,0.865,-0.6
6151,0.845,-0.625
6152,0.85,-0.575
6153,0.85,-0.545
6154,0.835,-0.5
6155,0.8,-0.5
6156,0.775,-0.44
6157,0.75,-0.42
6158,0.7,-0.395
6159,0.67,-0.36
6160,0.65,-0.32
6161,0.585,-0.285
6162,0.525,-0.28
6163,0.5,-0.22
6164,0.445,-0.21
6165,0.38,-0.22
6166,0.34,-0.205
6167,0.305,-0.215
6168,0.235,-0.235
6169,0.2,-0.225
6170,0.17,-0.235
6171,0.14,-0.23
6172,0.1,-0.24
6173,0.055,-0.25
6174,0.04,-0.245
6175,0.02,-0.26
6176,0.015,-0.265
6177,-0.015,-0.28
6178,-0.015,-0.27
6179,-0.02,-0.27
6180,-0.025,-0.295
6181,-0.035,-0.28
6182,-0.065,-0.29
6183,-0.055,-0.29
6184,-0.035,-0.295
6185,-0.05,-0.29
6186,-0.05,-0.305
6187,-0.04,-0.32
6188,-0.02,-0.325
6189,-0.045,-0.325
6190,-0.06,-0.32
6191,-0.05,-0.315
6192,-0.045,-0.315
6193,-0.045,-0.345
6194,-0.045,-0.345
6195,-0.035,-0.355
6196,-0.025,-0.365
6197,-0.035,-0.36
6198,-0.045,-0.35
6199,-0.04,-0.36
6200,-0.05,-0.375
6201,-0.06,-0.365
6202,-0.055,-0.37
6203,-0.04,-0.36
6204,-0.05,-0.36
6205,-0.05,-0.375
6206,-0.06,-0.38
6207,-0.055,-0.375
6208,-0.07,-0.37
6209,-0.06,-0.385
6210,-0.065,-0.37
6211,-0.05,-0.36
6212,-0.07,-0.375
6213,-0.075,-0.37
6214,-0.065,-0.355
6215,-0.07,-0.36
6216,-0.07,-0.365
6217,-0.085,-0.36
6218,-0.075,-0.37
6219,-0.08,-0.34
6220,-0.09,-0.35
6221,-0.09,-0.34
6222,-0.095,-0.36
6223,-0.085,-0.34
6224,-0.08,-0.36
6225,-0.065,-0.36
6226,-0.085,-0.35
6227,-0.095,-0.36
6228,-0.11,-0.34
6229,-0.08,-0.36
6230,-0.1,-0.345
6231,-0.085,-0.365
6232,-0.105,-0.365
6233,-0.13,-0.34
6234,-0.105,-0.36
6235,-0.115,-0.36
6236,-0.115,-0.35
6237,-0.105,-0.35
6238,-0.11,-0.345
6239,-0.12,-0.35
6240,-0.125,-0.35
6241,-0.125,-0.345
6242,-0.125,-0.36
6243,-0.12,-0.35
6244,-0.12,-0.32
6245,-0.12,-0.325
6246,-0.125,-0.34
6247,-0.105,-0.35
6248,-0.105,-0.335
6249,-0.12,-0.315
6250,-0.115,-0.345
6251,-0.085,-0.345
6252,-0.095,-0.3
6253,-0.11,-0.315
6254,-0.1,-0.29
6255,-0.1,-0.245
6256,-0.095,-0.22
6257,-0.09,-0.2
6258,-0.05,-0.19
6259,-0.02,-0.18
6260,-0.02,-0.12
6261,0,-0.115
6262,0.025,-0.12
6263,0.075,-0.12
6264,0.09,-0.14
6265,0.05,-0.19
6266,0.04,-0.2
6267,0.01,-0.195
6268,-0.02,-0.215
6269,-0.065,-0.25
6270,-0.08,-0.285
6271,-0.08,-0.275
6272,-0.12,-0.3
6273,-0.12,-0.32
6274,-0.13,-0.375
6275,-0.13,-0.4
6276,-0.105,-0.41
6277,-0.115,-0.4
6278,-0.145,-0.39
6279,-0.13,-0.415
6280,-0.13,-0.405
6281,-0.15,-0.375
6282,-0.15,-0.39
6283,-0.145,-0.38
6284,-0.155,-0.39
6285,-0.16,-0.39
6286,-0.15,-0.4
6287,-0.16,-0.405
6288,-0.145,-0.4
6289,-0.155,-0.385
6290,-0.135,-0.38
6291,-0.145,-0.39
6292,-0.165,-0.395
6293,-0.145,-0.37
6294,-0.15,-0.37
6295,-0.15,-0.385
6296,-0.13,-0.38
6297,-0.13,-0.375
6298,-0.15,-0.35
6299,-0.15,-0.295
6300,-0.13,-0.225
6301,-0.135,-0.065
6302,-0.085,0.12
6303,-0.065,0.425
6304,0.03,0.725
6305,-0.015,1.005
6306,-0.29,1.155
6307,-0.69,1.35
6308,-1.34,1.61
6309,-2.07,1.81
6310,-2.6,1.86
6311,-2.9,1.815
6312,-2.98,1.725
6313,-2.885,1.645
6314,-2.78,1.45
6315,-2.605,1.275
6316,-2.485,1.115
6317,-2.4,0.94
6318,-2.25,0.91
6319,-2.09,0.96
6320,-1.96,1.165
6321,-1.85,1.42
6322,-1.71,1.46
6323,-1.55,1.125
6324,-1.415,0.55
6325,-1.32,-0.06
6326,-1.195,-0.435
6327,-1.04,-0.595
6328,-0.88,-0.63
6329,-0.76,-0.62
6330,-0.59,-0.605
6331,-0.385,-0.575
6332,-0.2,-0.535
6333,-0.05,-0.52
6334,0.115,-0.45
6335,0.215,-0.48
6336,0.27,-0.5
6337,0.32,-0.47
6338,0.37,-0.46
6339,0.38,-0.45
6340,0.405,-0.43
6341,0.435,-0.43
6342,0.425,-0.425
6343,0.445,-0.405
6344,0.475,-0.38
6345,0.465,-0.37
6346,0.49,-0.39
6347,0.5,-0.385
6348,0.535,-0.4
6349,0.535,-0.37
6350,0.555,-0.385
6351,0.545,-0.36
6352,0.55,-0.355
6353,0.59,-0.38
6354,0.595,-0.385
6355,0.61,-0.375
6356,0.63,-0.38
6357,0.66,-0.39
6358,0.68,-0.405
6359,0.685,-0.395
6360,0.69,-0.39
6361,0.72,-0.425
6362,0.73,-0.44
6363,0.77,-0.45
6364,0.765,-0.44
6365,0.81,-0.465
6366,0.85,-0.49
6367,0.865,-0.505
6368,0.865,-0.495
6369,0.89,-0.51
6370,0.92,-0.525
6371,0.925,-0.535
6372,0.91,-0.525
6373,0.955,-0.525
6374,0.945,-0.52
6375,0.93,-0.5
6376,0.9,-0.47
6377,0.87,-0.455
6378,0.86,-0.415
6379,0.82,-0.375
6380,0.81,-0.33
6381,0.77,-0.305
6382,0.69,-0.29
6383,0.675,-0.245
6384,0.61,-0.235
6385,0.555,-0.205
6386,0.515,-0.2
6387,0.445,-0.195
6388,0.395,-0.19
6389,0.335,-0.175
6390,0.315,-0.2
6391,0.255,-0.22
6392,0.2,-0.215
6393,0.17,-0.215
6394,0.145,-0.22
6395,0.115,-0.24
6396,0.075,-0.24
6397,0.065,-0.255
6398,0.04,-0.245
6399,0.025,-0.265
6400,0.01,-0.27
6401,0.015,-0.285
6402,-0.005,-0.285
6403,0.01,-0.315
6404,-0.015,-0.3
6405,0.005,-0.29
6406,-0.015,-0.3
6407,-0.025,-0.3
6408,-0.005,-0.3
6409,-0.005,-0.335
6410,-0.005,-0.315
6411,-0.015,-0.345
6412,-0.02,-0.31
6413,-0.02,-0.315
6414,-0.025,-0.325
6415,-0.015,-0.345
6416,-0.025,-0.355
6417,-0.02,-0.35
6418,-0.015,-0.355
6419,-0.02,-0.36
6420,-0.01,-0.335
6421,0,-0.34
6422,-0.01,-0.34
6423,-0.025,-0.345
6424,-0.015,-0.36
6425,-0.005,-0.38
6426,0.01,-0.355
6427,-0.01,-0.34
6428,-0.01,-0.345
6429,-0.025,-0.35
6430,-0.04,-0.35
6431,-0.03,-0.345
6432,-0.025,-0.365
6433,-0.03,-0.355
6434,-0.025,-0.365
6435,-0.02,-0.36
6436,-0.02,-0.36
6437,-0.015,-0.34
6438,-0.03,-0.345
6439,-0.045,-0.335
6440,-0.03,-0.345
6441,-0.045,-0.33
6442,-0.03,-0.34
6443,-0.04,-0.33
6444,-0.02,-0.35
6445,-0.04,-0.335
6446,-0.06,-0.35
6447,-0.055,-0.33
6448,-0.05,-0.345
6449,-0.065,-0.32
6450,-0.05,-0.33
6451,-0.045,-0.335
6452,-0.07,-0.33
6453,-0.065,-0.35
6454,-0.07,-0.335
6455,-0.08,-0.335
6456,-0.08,-0.33
6457,-0.07,-0.32
6458,-0.08,-0.34
6459,-0.1,-0.32
6460,-0.08,-0.34
6461,-0.07,-0.33
6462,-0.08,-0.355
6463,-0.08,-0.34
6464,-0.09,-0.33
6465,-0.075,-0.33
6466,-0.085,-0.33
6467,-0.08,-0.345
6468,-0.075,-0.33
6469,-0.085,-0.32
6470,-0.085,-0.335
6471,-0.09,-0.31
6472,-0.11,-0.32
6473,-0.085,-0.31
6474,-0.07,-0.315
6475,-0.075,-0.265
6476,-0.09,-0.21
6477,-0.09,-0.2
6478,-0.075,-0.22
6479,-0.03,-0.185
6480,0.005,-0.145
6481,0.025,-0.14
6482,0.04,-0.115
6483,0.075,-0.105
6484,0.09,-0.125
6485,0.095,-0.165
6486,0.09,-0.195
6487,0.085,-0.21
6488,0.015,-0.22
6489,-0.04,-0.23
6490,-0.065,-0.285
6491,-0.08,-0.27
6492,-0.09,-0.265
6493,-0.115,-0.285
6494,-0.155,-0.32
6495,-0.15,-0.375
6496,-0.145,-0.38
6497,-0.14,-0.395
6498,-0.145,-0.405
6499,-0.14,-0.42
6500,-0.135,-0.395
6501,-0.155,-0.41
6502,-0.165,-0.42
6503,-0.15,-0.41
6504,-0.16,-0.4
6505,-0.14,-0.4
6506,-0.155,-0.42
6507,-0.155,-0.415
6508,-0.15,-0.41
6509,-0.13,-0.41
6510,-0.14,-0.4
6511,-0.135,-0.405
6512,-0.15,-0.38
6513,-0.13,-0.39
6514,-0.15,-0.405
6515,-0.125,-0.4
6516,-0.135,-0.39
6517,-0.135,-0.39
6518,-0.145,-0.4
6519,-0.135,-0.375
6520,-0.125,-0.335
6521,-0.11,-0.25
6522,-0.14,-0.12
6523,-0.135,0.05
6524,-0.06,0.335
6525,0.035,0.66
6526,0.06,0.905
6527,-0.175,1.08
6528,-0.5,1.26
6529,-1.08,1.495
6530,-1.825,1.675
6531,-2.46,1.76
6532,-2.88,1.71
6533,-3.04,1.595
6534,-2.985,1.46
6535,-2.88,1.275
6536,-2.715,1.065
6537,-2.58,0.935
6538,-2.475,0.775
6539,-2.33,0.71
6540,-2.175,0.825
6541,-2.065,1.06
6542,-1.96,1.28
6543,-1.83,1.23
6544,-1.67,0.835
6545,-1.5,0.265
6546,-1.35,-0.25
6547,-1.245,-0.545
6548,-1.09,-0.68
6549,-0.92,-0.695
6550,-0.765,-0.675
6551,-0.55,-0.665
6552,-0.38,-0.605
6553,-0.225,-0.575
6554,-0.04,-0.55
6555,0.125,-0.53
6556,0.195,-0.54
6557,0.275,-0.51
6558,0.325,-0.505
6559,0.345,-0.5
6560,0.385,-0.49
6561,0.385,-0.48
6562,0.42,-0.46
6563,0.415,-0.46
6564,0.44,-0.445
6565,0.46,-0.44
6566,0.45,-0.42
6567,0.465,-0.43
6568,0.485,-0.41
6569,0.47,-0.39
6570,0.49,-0.385
6571,0.505,-0.395
6572,0.505,-0.405
6573,0.535,-0.37
6574,0.545,-0.375
6575,0.54,-0.375
6576,0.56,-0.395
6577,0.585,-0.4
6578,0.6,-0.37
6579,0.605,-0.395
6580,0.64,-0.4
6581,0.68,-0.425
6582,0.7,-0.425
6583,0.725,-0.44
6584,0.75,-0.465
6585,0.77,-0.47
6586,0.815,-0.505
6587,0.815,-0.48
6588,0.83,-0.54
6589,0.85,-0.52
6590,0.885,-0.535
6591,0.875,-0.555
6592,0.89,-0.545
6593,0.875,-0.555
6594,0.885,-0.555
6595,0.9,-0.505
6596,0.9,-0.495
6597,0.855,-0.485
6598,0.825,-0.45
6599,0.805,-0.415
6600,0.77,-0.37
6601,0.72,-0.34
6602,0.68,-0.29
6603,0.64,-0.275
6604,0.6,-0.26
6605,0.535,-0.24
6606,0.495,-0.215
6607,0.45,-0.235
6608,0.41,-0.24
6609,0.34,-0.265
6610,0.305,-0.255
6611,0.255,-0.24
6612,0.215,-0.24
6613,0.165,-0.25
6614,0.145,-0.26
6615,0.1,-0.27
6616,0.055,-0.305
6617,0.055,-0.305
6618,0.015,-0.325
6619,0,-0.3
6620,0,-0.31
6621,0,-0.34
6622,-0.01,-0.345
6623,-0.005,-0.315
6624,-0.03,-0.325
6625,-0.045,-0.32
6626,-0.035,-0.34
6627,-0.035,-0.335
6628,-0.04,-0.35
6629,-0.06,-0.38
6630,-0.06,-0.37
6631,-0.05,-0.37
6632,-0.04,-0.375
6633,-0.055,-0.385
6634,-0.055,-0.37
6635,-0.045,-0.385
6636,-0.045,-0.365
6637,-0.05,-0.375
6638,-0.045,-0.385
6639,-0.065,-0.38
6640,-0.035,-0.365
6641,-0.035,-0.4
6642,-0.025,-0.42
6643,-0.04,-0.42
6644,-0.045,-0.41
6645,-0.045,-0.405
6646,-0.035,-0.39
6647,-0.04,-0.39
6648,-0.03,-0.38
6649,-0.05,-0.395
6650,-0.03,-0.425
6651,-0.025,-0.41
6652,-0.06,-0.395
6653,-0.055,-0.405
6654,-0.045,-0.39
6655,-0.035,-0.39
6656,-0.05,-0.395
6657,-0.06,-0.4
6658,-0.045,-0.41
6659,-0.055,-0.41
6660,-0.07,-0.39
6661,-0.08,-0.405
6662,-0.08,-0.39
6663,-0.07,-0.38
6664,-0.065,-0.375
6665,-0.06,-0.405
6666,-0.075,-0.39
6667,-0.09,-0.375
6668,-0.08,-0.385
6669,-0.075,-0.395
6670,-0.085,-0.375
6671,-0.085,-0.375
6672,-0.08,-0.36
6673,-0.115,-0.37
6674,-0.08,-0.365
6675,-0.09,-0.36
6676,-0.11,-0.365
6677,-0.085,-0.365
6678,-0.09,-0.36
6679,-0.09,-0.37
6680,-0.075,-0.35
6681,-0.075,-0.345
6682,-0.105,-0.38
6683,-0.1,-0.36
6684,-0.115,-0.35
6685,-0.08,-0.375
6686,-0.08,-0.345
6687,-0.13,-0.345
6688,-0.1,-0.345
6689,-0.08,-0.35
6690,-0.09,-0.36
6691,-0.1,-0.36
6692,-0.115,-0.335
6693,-0.11,-0.34
6694,-0.1,-0.36
6695,-0.115,-0.36
6696,-0.11,-0.335
6697,-0.08,-0.33
6698,-0.08,-0.305
6699,-0.1,-0.26
6700,-0.11,-0.225
6701,-0.12,-0.235
6702,-0.095,-0.215
6703,-0.035,-0.175
6704,-0.025,-0.15
6705,-0.02,-0.14
6706,0.03,-0.14
6707,0.05,-0.16
6708,0.065,-0.165
6709,0.06,-0.22
6710,0.04,-0.24
6711,0,-0.215
6712,-0.035,-0.245
6713,-0.08,-0.305
6714,-0.05,-0.31
6715,-0.08,-0.325
6716,-0.1,-0.3
6717,-0.145,-0.34
6718,-0.18,-0.38
6719,-0.18,-0.4
6720,-0.19,-0.4
6721,-0.17,-0.425
6722,-0.14,-0.42
6723,-0.175,-0.41
6724,-0.185,-0.425
6725,-0.17,-0.445
6726,-0.19,-0.435
6727,-0.175,-0.445
6728,-0.165,-0.41
6729,-0.175,-0.41
6730,-0.18,-0.41
6731,-0.19,-0.43
6732,-0.195,-0.425
6733,-0.2,-0.42
6734,-0.205,-0.43
6735,-0.17,-0.425
6736,-0.2,-0.425
6737,-0.21,-0.435
6738,-0.2,-0.435
6739,-0.2,-0.415
6740,-0.19,-0.415
6741,-0.2,-0.385
6742,-0.185,-0.365
6743,-0.175,-0.33
6744,-0.195,-0.26
6745,-0.175,-0.085
6746,-0.155,0.155
6747,-0.1,0.53
6748,0,0.95
6749,-0.065,1.29
6750,-0.355,1.505
6751,-0.75,1.755
6752,-1.42,1.995
6753,-2.13,2.19
6754,-2.715,2.14
6755,-3.015,2.04
6756,-3.04,1.89
6757,-2.9,1.63
6758,-2.69,1.395
6759,-2.49,1.24
6760,-2.38,1.065
6761,-2.23,1.03
6762,-2.065,1.15
6763,-1.91,1.415
6764,-1.82,1.695
6765,-1.7,1.67
6766,-1.55,1.275
6767,-1.42,0.675
6768,-1.295,0.115
6769,-1.17,-0.335
6770,-1.04,-0.565
6771,-0.89,-0.65
6772,-0.735,-0.67
6773,-0.565,-0.685
6774,-0.38,-0.635
6775,-0.215,-0.61
6776,-0.075,-0.6
6777,0.05,-0.59
6778,0.15,-0.615
6779,0.22,-0.63
6780,0.225,-0.595
6781,0.245,-0.575
6782,0.26,-0.575
6783,0.31,-0.54
6784,0.32,-0.545
6785,0.35,-0.525
6786,0.34,-0.53
6787,0.36,-0.52
6788,0.38,-0.5
6789,0.37,-0.5
6790,0.39,-0.505
6791,0.41,-0.495
6792,0.405,-0.48
6793,0.42,-0.455
6794,0.415,-0.46
6795,0.415,-0.465
6796,0.45,-0.47
6797,0.46,-0.495
6798,0.495,-0.5
6799,0.5,-0.495
6800,0.515,-0.505
6801,0.54,-0.535
6802,0.575,-0.56
6803,0.585,-0.55
6804,0.615,-0.56
6805,0.66,-0.565
6806,0.665,-0.615
6807,0.685,-0.625
6808,0.715,-0.63
6809,0.725,-0.64
6810,0.74,-0.645
6811,0.76,-0.645
6812,0.75,-0.645
6813,0.765,-0.635
6814,0.765,-0.64
6815,0.76,-0.615
6816,0.735,-0.58
6817,0.71,-0.575
6818,0.69,-0.525
6819,0.675,-0.48
6820,0.63,-0.425
6821,0.6,-0.415
6822,0.55,-0.355
6823,0.505,-0.32
6824,0.46,-0.3
6825,0.415,-0.295
6826,0.365,-0.29
6827,0.315,-0.27
6828,0.25,-0.295
6829,0.19,-0.29
6830,0.175,-0.285
6831,0.115,-0.285
6832,0.065,-0.285
6833,0.03,-0.31
6834,0,-0.31
6835,0,-0.305
6836,-0.055,-0.32
6837,-0.09,-0.335
6838,-0.095,-0.36
6839,-0.105,-0.33
6840,-0.09,-0.345
6841,-0.13,-0.365
6842,-0.14,-0.355
6843,-0.13,-0.345
6844,-0.13,-0.37
6845,-0.12,-0.365
6846,-0.135,-0.365
6847,-0.135,-0.36
6848,-0.125,-0.385
6849,-0.135,-0.39
6850,-0.12,-0.38
6851,-0.12,-0.37
6852,-0.14,-0.39
6853,-0.1,-0.39
6854,-0.12,-0.4
6855,-0.105,-0.395
6856,-0.105,-0.4
6857,-0.105,-0.43
6858,-0.1,-0.43
6859,-0.12,-0.415
6860,-0.09,-0.425
6861,-0.1,-0.42
6862,-0.12,-0.445
6863,-0.1,-0.435
6864,-0.085,-0.42
6865,-0.105,-0.45
6866,-0.1,-0.435
6867,-0.08,-0.43
6868,-0.08,-0.44
6869,-0.08,-0.45
6870,-0.1,-0.44
6871,-0.085,-0.435
6872,-0.09,-0.46
6873,-0.095,-0.445
6874,-0.105,-0.435
6875,-0.125,-0.42
6876,-0.12,-0.43
6877,-0.145,-0.44
6878,-0.11,-0.415
6879,-0.105,-0.42
6880,-0.125,-0.43
6881,-0.135,-0.425
6882,-0.13,-0.415
6883,-0.145,-0.43
6884,-0.135,-0.415
6885,-0.145,-0.43
6886,-0.14,-0.435
6887,-0.155,-0.4
6888,-0.14,-0.4
6889,-0.155,-0.41
6890,-0.165,-0.41
6891,-0.17,-0.4
6892,-0.18,-0.39
6893,-0.16,-0.42
6894,-0.165,-0.39
6895,-0.16,-0.38
6896,-0.17,-0.39
6897,-0.165,-0.395
6898,-0.18,-0.39
6899,-0.16,-0.395
6900,-0.185,-0.395
6901,-0.165,-0.39
6902,-0.19,-0.375
6903,-0.175,-0.37
6904,-0.17,-0.37
6905,-0.175,-0.405
6906,-0.195,-0.36
6907,-0.18,-0.36
6908,-0.155,-0.37
6909,-0.175,-0.365
6910,-0.185,-0.36
6911,-0.165,-0.33
6912,-0.175,-0.31
6913,-0.155,-0.265
6914,-0.185,-0.25
6915,-0.16,-0.23
6916,-0.135,-0.215
6917,-0.085,-0.18
6918,-0.08,-0.135
6919,-0.055,-0.145
6920,0.02,-0.16
6921,0,-0.18
6922,-0.005,-0.2
6923,-0.01,-0.23
6924,-0.04,-0.225
6925,-0.09,-0.24
6926,-0.11,-0.24
6927,-0.125,-0.285
6928,-0.14,-0.3
6929,-0.185,-0.305
6930,-0.19,-0.34
6931,-0.18,-0.385
6932,-0.21,-0.425
6933,-0.22,-0.43
6934,-0.215,-0.43
6935,-0.22,-0.43
6936,-0.22,-0.42
6937,-0.2,-0.43
6938,-0.2,-0.4
6939,-0.2,-0.415
6940,-0.185,-0.43
6941,-0.215,-0.44
6942,-0.22,-0.415
6943,-0.22,-0.41
6944,-0.22,-0.425
6945,-0.235,-0.395
6946,-0.25,-0.41
6947,-0.225,-0.42
6948,-0.24,-0.4
6949,-0.23,-0.41
6950,-0.235,-0.385
6951,-0.22,-0.41
6952,-0.22,-0.41
6953,-0.24,-0.405
6954,-0.225,-0.405
6955,-0.22,-0.39
6956,-0.205,-0.32
6957,-0.225,-0.21
6958,-0.21,-0.025
6959,-0.17,0.21
6960,-0.09,0.555
6961,-0.025,0.925
6962,-0.15,1.13
6963,-0.47,1.31
6964,-0.96,1.515
6965,-1.65,1.725
6966,-2.36,1.865
6967,-2.825,1.835
6968,-3.02,1.74
6969,-3.03,1.63
6970,-2.925,1.45
6971,-2.75,1.26
6972,-2.58,1.125
6973,-2.51,1
6974,-2.32,0.93
6975,-2.165,1.055
6976,-2.05,1.25
6977,-1.94,1.52
6978,-1.8,1.49
6979,-1.67,1.12
6980,-1.51,0.515
6981,-1.385,-0.03
6982,-1.26,-0.395
6983,-1.105,-0.56
6984,-0.95,-0.6
6985,-0.77,-0.64
6986,-0.58,-0.67
6987,-0.42,-0.62
6988,-0.2,-0.61
6989,-0.045,-0.59
6990,0.1,-0.585
6991,0.175,-0.57
6992,0.26,-0.57
6993,0.295,-0.555
6994,0.31,-0.535
6995,0.345,-0.53
6996,0.355,-0.52
6997,0.36,-0.505
6998,0.38,-0.49
6999,0.375,-0.5
7000,0.4,-0.49
7001,0.42,-0.48
7002,0.43,-0.46
7003,0.41,-0.47
7004,0.43,-0.465
7005,0.42,-0.445
7006,0.445,-0.445
7007,0.455,-0.45
7008,0.48,-0.465
7009,0.51,-0.455
7010,0.51,-0.46
7011,0.505,-0.455
7012,0.525,-0.485
7013,0.545,-0.475
7014,0.59,-0.5
7015,0.6,-0.52
7016,0.64,-0.53
7017,0.66,-0.535
7018,0.69,-0.55
7019,0.725,-0.57
7020,0.745,-0.59
7021,0.745,-0.61
7022,0.755,-0.62
7023,0.77,-0.63
7024,0.8,-0.64
7025,0.845,-0.64
7026,0.84,-0.63
7027,0.815,-0.635
7028,0.805,-0.625
7029,0.81,-0.6
7030,0.795,-0.57
7031,0.74,-0.525
7032,0.72,-0.5
7033,0.68,-0.45
7034,0.66,-0.415
7035,0.605,-0.39
7036,0.565,-0.355
7037,0.51,-0.32
7038,0.45,-0.315
7039,0.415,-0.305
7040,0.365,-0.31
7041,0.33,-0.295
7042,0.275,-0.295
7043,0.215,-0.315
7044,0.155,-0.315
7045,0.12,-0.3
7046,0.085,-0.32
7047,0.07,-0.33
7048,0.03,-0.335
7049,-0.01,-0.35
7050,-0.035,-0.355
7051,-0.05,-0.365
7052,-0.05,-0.345
7053,-0.05,-0.35
7054,-0.06,-0.365
7055,-0.075,-0.35
7056,-0.075,-0.37
7057,-0.095,-0.37
7058,-0.075,-0.375
7059,-0.08,-0.39
7060,-0.085,-0.39
7061,-0.09,-0.39
7062,-0.085,-0.41
7063,-0.08,-0.4
7064,-0.085,-0.41
7065,-0.09,-0.375
7066,-0.075,-0.42
7067,-0.08,-0.42
7068,-0.11,-0.415
7069,-0.075,-0.42
7070,-0.055,-0.405
7071,-0.09,-0.435
7072,-0.075,-0.435
7073,-0.07,-0.44
7074,-0.08,-0.43
7075,-0.095,-0.44
7076,-0.1,-0.44
7077,-0.07,-0.435
7078,-0.085,-0.43
7079,-0.085,-0.44
7080,-0.105,-0.45
7081,-0.1,-0.425
7082,-0.095,-0.45
7083,-0.1,-0.46
7084,-0.095,-0.435
7085,-0.1,-0.42
7086,-0.125,-0.42
7087,-0.105,-0.435
7088,-0.115,-0.425
7089,-0.095,-0.42
7090,-0.095,-0.42
7091,-0.11,-0.42
7092,-0.11,-0.435
7093,-0.105,-0.41
7094,-0.105,-0.41
7095,-0.105,-0.41
7096,-0.115,-0.415
7097,-0.11,-0.405
7098,-0.125,-0.405
7099,-0.115,-0.415
7100,-0.13,-0.41
7101,-0.115,-0.385
7102,-0.12,-0.39
7103,-0.125,-0.405
7104,-0.115,-0.385
7105,-0.11,-0.39
7106,-0.12,-0.37
7107,-0.12,-0.375
7108,-0.13,-0.38
7109,-0.135,-0.38
7110,-0.115,-0.38
7111,-0.11,-0.375
7112,-0.12,-0.38
7113,-0.12,-0.375
7114,-0.13,-0.355
7115,-0.125,-0.375
7116,-0.12,-0.37
7117,-0.13,-0.34
7118,-0.135,-0.37
7119,-0.14,-0.365
7120,-0.14,-0.345
7121,-0.12,-0.31
7122,-0.13,-0.255
7123,-0.13,-0.245
7124,-0.11,-0.22
7125,-0.08,-0.195
7126,-0.07,-0.165
7127,-0.015,-0.16
7128,-0.01,-0.14
