'sample interval','ECG1','ECG2'
'0.004 sec','mV','mV'
360000,-0.215,-0.310
360001,-0.215,-0.310
360002,-0.225,-0.315
360003,-0.210,-0.315
360004,-0.215,-0.290
360005,-0.210,-0.305
360006,-0.245,-0.300
360007,-0.215,-0.300
360008,-0.220,-0.290
360009,-0.235,-0.295
360010,-0.265,-0.300
360011,-0.255,-0.300
360012,-0.245,-0.285
360013,-0.260,-0.275
360014,-0.245,-0.285
360015,-0.235,-0.265
360016,-0.245,-0.285
360017,-0.260,-0.295
360018,-0.260,-0.300
360019,-0.265,-0.265
360020,-0.275,-0.270
360021,-0.265,-0.280
360022,-0.270,-0.265
360023,-0.290,-0.265
360024,-0.295,-0.265
360025,-0.280,-0.240
360026,-0.285,-0.280
360027,-0.300,-0.260
360028,-0.280,-0.240
360029,-0.295,-0.245
360030,-0.290,-0.245
360031,-0.290,-0.255
360032,-0.280,-0.205
360033,-0.290,-0.245
360034,-0.320,-0.250
360035,-0.315,-0.265
360036,-0.305,-0.260
360037,-0.285,-0.250
360038,-0.310,-0.270
360039,-0.320,-0.245
360040,-0.305,-0.230
360041,-0.285,-0.220
360042,-0.295,-0.210
360043,-0.285,-0.225
360044,-0.305,-0.235
360045,-0.305,-0.205
360046,-0.320,-0.160
360047,-0.315,-0.145
360048,-0.290,-0.130
360049,-0.275,-0.095
360050,-0.230,-0.080
360051,-0.195,-0.060
360052,-0.165,-0.040
360053,-0.140,-0.015
360054,-0.120,-0.025
360055,-0.115,-0.045
360056,-0.105,-0.080
360057,-0.125,-0.085
360058,-0.135,-0.090
360059,-0.185,-0.125
360060,-0.210,-0.165
360061,-0.240,-0.175
360062,-0.235,-0.185
360063,-0.305,-0.205
360064,-0.310,-0.210
360065,-0.330,-0.230
360066,-0.335,-0.265
360067,-0.355,-0.285
360068,-0.335,-0.295
360069,-0.355,-0.290
360070,-0.340,-0.280
360071,-0.355,-0.280
360072,-0.350,-0.300
360073,-0.340,-0.305
360074,-0.335,-0.290
360075,-0.365,-0.290
360076,-0.345,-0.295
360077,-0.350,-0.270
360078,-0.355,-0.280
360079,-0.335,-0.265
360080,-0.365,-0.290
360081,-0.350,-0.280
360082,-0.345,-0.260
360083,-0.330,-0.295
360084,-0.335,-0.295
360085,-0.335,-0.260
360086,-0.325,-0.255
360087,-0.330,-0.255
360088,-0.315,-0.255
360089,-0.320,-0.245
360090,-0.330,-0.220
360091,-0.305,-0.135
360092,-0.325,-0.015
360093,-0.305,0.185
360094,-0.235,0.475
360095,-0.160,0.825
360096,-0.155,1.115
360097,-0.435,1.350
360098,-0.800,1.580
360099,-1.405,1.815
360100,-2.135,2.085
360101,-2.725,2.270
360102,-3.085,2.270
360103,-3.210,2.210
360104,-3.155,2.135
360105,-3.025,1.970
360106,-2.820,1.795
360107,-2.655,1.675
360108,-2.575,1.560
360109,-2.430,1.485
360110,-2.255,1.555
360111,-2.130,1.770
360112,-2.035,2.010
360113,-1.910,2.100
360114,-1.770,1.890
360115,-1.640,1.355
360116,-1.515,0.725
360117,-1.390,0.205
360118,-1.240,-0.150
360119,-1.090,-0.340
360120,-0.915,-0.440
360121,-0.735,-0.505
360122,-0.555,-0.520
360123,-0.385,-0.495
360124,-0.220,-0.445
360125,-0.075,-0.470
360126,0.015,-0.485
360127,0.105,-0.495
360128,0.140,-0.480
360129,0.175,-0.455
360130,0.205,-0.475
360131,0.230,-0.485
360132,0.230,-0.450
360133,0.250,-0.440
360134,0.260,-0.440
360135,0.270,-0.430
360136,0.280,-0.430
360137,0.265,-0.425
360138,0.280,-0.425
360139,0.280,-0.425
360140,0.315,-0.420
360141,0.330,-0.405
360142,0.325,-0.420
360143,0.335,-0.415
360144,0.360,-0.400
360145,0.375,-0.390
360146,0.390,-0.420
360147,0.410,-0.430
360148,0.425,-0.425
360149,0.460,-0.440
360150,0.480,-0.450
360151,0.475,-0.480
360152,0.520,-0.500
360153,0.565,-0.490
360154,0.570,-0.500
360155,0.600,-0.530
360156,0.620,-0.530
360157,0.625,-0.545
360158,0.670,-0.550
360159,0.700,-0.580
360160,0.705,-0.580
360161,0.720,-0.580
360162,0.750,-0.590
360163,0.745,-0.565
360164,0.740,-0.585
360165,0.735,-0.545
360166,0.760,-0.500
360167,0.730,-0.475
360168,0.715,-0.450
360169,0.675,-0.415
360170,0.625,-0.350
360171,0.580,-0.310
360172,0.535,-0.280
360173,0.485,-0.215
360174,0.455,-0.195
360175,0.400,-0.175
360176,0.330,-0.185
360177,0.280,-0.140
360178,0.245,-0.120
360179,0.180,-0.135
360180,0.135,-0.155
360181,0.075,-0.140
360182,0.035,-0.140
360183,-0.005,-0.140
360184,-0.030,-0.140
360185,-0.065,-0.180
360186,-0.095,-0.175
360187,-0.095,-0.175
360188,-0.120,-0.180
360189,-0.140,-0.185
360190,-0.155,-0.175
360191,-0.165,-0.190
360192,-0.175,-0.210
360193,-0.185,-0.220
360194,-0.155,-0.195
360195,-0.185,-0.195
360196,-0.170,-0.220
360197,-0.180,-0.210
360198,-0.190,-0.210
360199,-0.185,-0.210
360200,-0.155,-0.230
360201,-0.170,-0.230
360202,-0.175,-0.235
360203,-0.175,-0.245
360204,-0.160,-0.245
360205,-0.160,-0.250
360206,-0.155,-0.260
360207,-0.150,-0.240
360208,-0.140,-0.265
360209,-0.130,-0.280
360210,-0.155,-0.270
360211,-0.130,-0.290
360212,-0.115,-0.275
360213,-0.120,-0.260
360214,-0.125,-0.275
360215,-0.125,-0.265
360216,-0.145,-0.265
360217,-0.150,-0.275
360218,-0.140,-0.300
360219,-0.135,-0.290
360220,-0.150,-0.275
360221,-0.140,-0.295
360222,-0.145,-0.300
360223,-0.135,-0.295
360224,-0.125,-0.260
360225,-0.145,-0.280
360226,-0.155,-0.290
360227,-0.170,-0.280
360228,-0.165,-0.280
360229,-0.180,-0.275
360230,-0.160,-0.280
360231,-0.175,-0.270
360232,-0.170,-0.260
360233,-0.155,-0.255
360234,-0.170,-0.285
360235,-0.185,-0.275
360236,-0.185,-0.260
360237,-0.170,-0.255
360238,-0.190,-0.260
360239,-0.190,-0.275
360240,-0.185,-0.255
360241,-0.190,-0.235
360242,-0.210,-0.255
360243,-0.215,-0.275
360244,-0.220,-0.245
360245,-0.195,-0.235
360246,-0.220,-0.255
360247,-0.190,-0.245
360248,-0.210,-0.245
360249,-0.210,-0.230
360250,-0.195,-0.255
360251,-0.205,-0.240
360252,-0.195,-0.235
360253,-0.215,-0.240
360254,-0.210,-0.240
360255,-0.210,-0.245
360256,-0.190,-0.250
360257,-0.205,-0.220
360258,-0.200,-0.230
360259,-0.200,-0.230
360260,-0.220,-0.240
360261,-0.225,-0.235
360262,-0.205,-0.220
360263,-0.185,-0.230
360264,-0.200,-0.220
360265,-0.225,-0.170
360266,-0.200,-0.135
360267,-0.175,-0.130
360268,-0.145,-0.120
360269,-0.130,-0.085
360270,-0.090,-0.055
360271,-0.075,-0.040
360272,-0.045,-0.020
360273,-0.030,-0.010
360274,0.000,-0.020
360275,0.000,-0.040
360276,0.000,-0.075
360277,-0.025,-0.090
360278,-0.065,-0.090
360279,-0.115,-0.105
360280,-0.125,-0.155
360281,-0.150,-0.150
360282,-0.145,-0.160
360283,-0.185,-0.200
360284,-0.250,-0.240
360285,-0.210,-0.270
360286,-0.215,-0.280
360287,-0.200,-0.270
360288,-0.195,-0.280
360289,-0.195,-0.280
360290,-0.195,-0.280
360291,-0.210,-0.285
360292,-0.205,-0.300
360293,-0.205,-0.295
360294,-0.210,-0.285
360295,-0.200,-0.285
360296,-0.205,-0.285
360297,-0.200,-0.280
360298,-0.210,-0.295
360299,-0.185,-0.295
360300,-0.215,-0.290
360301,-0.205,-0.290
360302,-0.205,-0.270
360303,-0.190,-0.290
360304,-0.220,-0.305
360305,-0.215,-0.290
360306,-0.210,-0.275
360307,-0.210,-0.265
360308,-0.190,-0.260
360309,-0.205,-0.265
360310,-0.205,-0.180
360311,-0.210,-0.035
360312,-0.205,0.130
360313,-0.140,0.385
360314,-0.060,0.720
360315,-0.050,0.975
360316,-0.310,1.170
360317,-0.735,1.355
360318,-1.385,1.630
360319,-2.130,1.890
360320,-2.740,1.990
360321,-3.095,1.970
360322,-3.145,1.945
360323,-3.050,1.900
360324,-2.890,1.745
360325,-2.680,1.605
360326,-2.545,1.475
360327,-2.425,1.365
360328,-2.220,1.330
360329,-2.040,1.440
360330,-1.925,1.640
360331,-1.840,1.870
360332,-1.720,1.775
360333,-1.580,1.345
360334,-1.420,0.675
360335,-1.340,0.100
360336,-1.200,-0.255
360337,-1.065,-0.445
360338,-0.905,-0.500
360339,-0.735,-0.510
360340,-0.560,-0.495
360341,-0.380,-0.495
360342,-0.185,-0.455
360343,-0.025,-0.445
360344,0.110,-0.450
360345,0.215,-0.460
360346,0.255,-0.460
360347,0.310,-0.420
360348,0.330,-0.430
360349,0.355,-0.430
360350,0.370,-0.425
360351,0.380,-0.410
360352,0.405,-0.405
360353,0.420,-0.415
360354,0.425,-0.410
360355,0.460,-0.390
360356,0.445,-0.390
360357,0.470,-0.390
360358,0.485,-0.385
360359,0.495,-0.390
360360,0.495,-0.390
360361,0.535,-0.390
360362,0.550,-0.390
360363,0.560,-0.390
360364,0.585,-0.380
360365,0.595,-0.390
360366,0.620,-0.405
360367,0.620,-0.415
360368,0.635,-0.425
360369,0.675,-0.450
360370,0.720,-0.460
360371,0.725,-0.485
360372,0.765,-0.490
360373,0.770,-0.520
360374,0.825,-0.535
360375,0.845,-0.535
360376,0.860,-0.570
360377,0.875,-0.550
360378,0.890,-0.575
360379,0.910,-0.580
360380,0.930,-0.580
360381,0.910,-0.570
360382,0.905,-0.560
360383,0.900,-0.545
360384,0.875,-0.505
360385,0.880,-0.480
360386,0.825,-0.435
360387,0.790,-0.395
360388,0.765,-0.350
360389,0.715,-0.305
360390,0.690,-0.270
360391,0.595,-0.230
360392,0.545,-0.190
360393,0.480,-0.165
360394,0.420,-0.140
360395,0.380,-0.135
360396,0.330,-0.140
360397,0.280,-0.140
360398,0.225,-0.140
360399,0.170,-0.155
360400,0.135,-0.150
360401,0.095,-0.170
360402,0.075,-0.175
360403,0.050,-0.160
360404,0.035,-0.175
360405,0.015,-0.175
360406,0.000,-0.175
360407,-0.025,-0.190
360408,-0.035,-0.200
360409,-0.050,-0.220
360410,-0.060,-0.195
360411,-0.025,-0.205
360412,-0.035,-0.220
360413,-0.060,-0.225
360414,-0.050,-0.210
360415,-0.040,-0.220
360416,-0.055,-0.230
360417,-0.050,-0.240
360418,-0.050,-0.250
360419,-0.035,-0.220
360420,-0.045,-0.230
360421,-0.060,-0.250
360422,-0.020,-0.255
360423,-0.055,-0.255
360424,-0.045,-0.250
360425,-0.040,-0.225
360426,-0.025,-0.255
360427,-0.045,-0.245
360428,-0.050,-0.235
360429,-0.040,-0.235
360430,-0.035,-0.250
360431,-0.040,-0.255
360432,-0.050,-0.255
360433,-0.060,-0.250
360434,-0.045,-0.255
360435,-0.070,-0.255
360436,-0.055,-0.255
360437,-0.055,-0.250
360438,-0.055,-0.265
360439,-0.055,-0.255
360440,-0.060,-0.245
360441,-0.055,-0.245
360442,-0.055,-0.265
360443,-0.070,-0.250
360444,-0.080,-0.245
360445,-0.090,-0.245
360446,-0.105,-0.240
360447,-0.085,-0.250
360448,-0.105,-0.250
360449,-0.095,-0.240
360450,-0.100,-0.240
360451,-0.095,-0.230
360452,-0.095,-0.205
360453,-0.075,-0.230
360454,-0.090,-0.235
360455,-0.105,-0.225
360456,-0.105,-0.205
360457,-0.095,-0.220
360458,-0.095,-0.220
360459,-0.125,-0.225
360460,-0.130,-0.200
360461,-0.115,-0.215
360462,-0.105,-0.225
360463,-0.135,-0.215
360464,-0.110,-0.205
360465,-0.105,-0.210
360466,-0.110,-0.180
360467,-0.100,-0.220
360468,-0.100,-0.220
360469,-0.120,-0.210
360470,-0.130,-0.210
360471,-0.120,-0.210
360472,-0.130,-0.210
360473,-0.135,-0.205
360474,-0.130,-0.185
360475,-0.130,-0.160
360476,-0.120,-0.110
360477,-0.125,-0.100
360478,-0.095,-0.075
360479,-0.060,-0.045
360480,-0.030,-0.030
360481,-0.040,0.000
360482,-0.015,-0.005
360483,0.045,0.005
360484,0.040,-0.010
360485,0.040,-0.055
360486,0.030,-0.080
360487,0.000,-0.065
360488,-0.050,-0.075
360489,-0.090,-0.115
360490,-0.120,-0.135
360491,-0.100,-0.130
360492,-0.145,-0.135
360493,-0.180,-0.190
360494,-0.185,-0.245
360495,-0.190,-0.270
360496,-0.200,-0.265
360497,-0.190,-0.255
360498,-0.210,-0.290
360499,-0.195,-0.275
360500,-0.200,-0.255
360501,-0.205,-0.285
360502,-0.215,-0.275
360503,-0.190,-0.270
360504,-0.215,-0.265
360505,-0.205,-0.295
360506,-0.220,-0.280
360507,-0.215,-0.270
360508,-0.200,-0.265
360509,-0.195,-0.280
360510,-0.195,-0.270
360511,-0.185,-0.260
360512,-0.225,-0.270
360513,-0.220,-0.280
360514,-0.220,-0.275
360515,-0.205,-0.280
360516,-0.210,-0.250
360517,-0.215,-0.255
360518,-0.210,-0.225
360519,-0.210,-0.160
360520,-0.200,-0.045
360521,-0.215,0.110
360522,-0.145,0.345
360523,-0.070,0.655
360524,-0.055,0.895
360525,-0.360,1.045
360526,-0.795,1.270
360527,-1.530,1.535
360528,-2.310,1.790
360529,-2.880,1.855
360530,-3.180,1.840
360531,-3.195,1.805
360532,-3.065,1.740
360533,-2.900,1.580
360534,-2.725,1.435
360535,-2.615,1.290
360536,-2.460,1.160
360537,-2.265,1.150
360538,-2.105,1.290
360539,-2.000,1.535
360540,-1.860,1.580
360541,-1.710,1.255
360542,-1.565,0.645
360543,-1.430,0.055
360544,-1.290,-0.320
360545,-1.165,-0.500
360546,-1.005,-0.520
360547,-0.825,-0.505
360548,-0.625,-0.505
360549,-0.445,-0.500
360550,-0.215,-0.445
360551,-0.025,-0.410
360552,0.115,-0.415
360553,0.175,-0.435
360554,0.240,-0.425
360555,0.275,-0.410
360556,0.295,-0.395
360557,0.315,-0.390
360558,0.345,-0.375
360559,0.370,-0.370
360560,0.360,-0.390
360561,0.385,-0.375
360562,0.395,-0.360
360563,0.410,-0.355
360564,0.425,-0.360
360565,0.435,-0.380
360566,0.440,-0.360
360567,0.465,-0.365
360568,0.465,-0.375
360569,0.495,-0.375
360570,0.525,-0.365
360571,0.535,-0.370
360572,0.565,-0.395
360573,0.585,-0.405
360574,0.610,-0.395
360575,0.625,-0.405
360576,0.675,-0.445
360577,0.700,-0.450
360578,0.710,-0.475
360579,0.755,-0.470
360580,0.775,-0.490
360581,0.810,-0.500
360582,0.840,-0.505
360583,0.860,-0.515
360584,0.865,-0.530
360585,0.875,-0.545
360586,0.890,-0.535
360587,0.920,-0.525
360588,0.890,-0.535
360589,0.895,-0.530
360590,0.875,-0.480
360591,0.875,-0.450
360592,0.825,-0.395
360593,0.775,-0.355
360594,0.745,-0.320
360595,0.675,-0.300
360596,0.640,-0.245
360597,0.600,-0.235
360598,0.520,-0.180
360599,0.465,-0.140
360600,0.430,-0.155
360601,0.365,-0.125
360602,0.325,-0.125
360603,0.280,-0.120
360604,0.240,-0.150
360605,0.165,-0.155
360606,0.130,-0.150
360607,0.090,-0.130
360608,0.060,-0.150
360609,0.005,-0.150
360610,0.010,-0.150
360611,-0.015,-0.175
360612,-0.015,-0.185
360613,-0.025,-0.200
360614,-0.020,-0.165
360615,-0.045,-0.180
360616,-0.055,-0.200
360617,-0.060,-0.165
360618,-0.045,-0.190
360619,-0.040,-0.200
360620,-0.055,-0.195
360621,-0.060,-0.205
360622,-0.045,-0.215
360623,-0.050,-0.215
360624,-0.035,-0.235
360625,-0.045,-0.235
360626,-0.070,-0.240
360627,-0.060,-0.250
360628,-0.065,-0.230
360629,-0.085,-0.245
360630,-0.050,-0.240
360631,-0.050,-0.215
360632,-0.070,-0.205
360633,-0.070,-0.245
360634,-0.060,-0.230
360635,-0.060,-0.250
360636,-0.065,-0.245
360637,-0.055,-0.240
360638,-0.050,-0.255
360639,-0.035,-0.230
360640,-0.055,-0.250
360641,-0.065,-0.255
360642,-0.055,-0.235
360643,-0.065,-0.245
360644,-0.060,-0.245
360645,-0.040,-0.250
360646,-0.050,-0.240
360647,-0.070,-0.240
360648,-0.075,-0.250
360649,-0.075,-0.240
360650,-0.080,-0.240
360651,-0.100,-0.230
360652,-0.105,-0.245
360653,-0.115,-0.240
360654,-0.120,-0.235
360655,-0.120,-0.220
360656,-0.100,-0.235
360657,-0.100,-0.230
360658,-0.125,-0.210
360659,-0.135,-0.220
360660,-0.125,-0.230
360661,-0.145,-0.235
360662,-0.135,-0.215
360663,-0.120,-0.215
360664,-0.140,-0.215
360665,-0.125,-0.200
360666,-0.115,-0.205
360667,-0.125,-0.210
360668,-0.135,-0.220
360669,-0.150,-0.200
360670,-0.135,-0.195
360671,-0.135,-0.210
360672,-0.120,-0.220
360673,-0.135,-0.215
360674,-0.130,-0.200
360675,-0.120,-0.200
360676,-0.130,-0.220
360677,-0.140,-0.210
360678,-0.150,-0.200
360679,-0.135,-0.200
360680,-0.130,-0.195
360681,-0.140,-0.180
360682,-0.155,-0.175
360683,-0.130,-0.165
360684,-0.150,-0.140
360685,-0.145,-0.105
360686,-0.130,-0.060
360687,-0.105,-0.050
360688,-0.080,-0.050
360689,-0.055,-0.025
360690,-0.035,0.000
360691,-0.005,0.000
360692,0.005,-0.010
360693,0.025,-0.020
360694,0.030,-0.065
360695,-0.010,-0.085
360696,-0.040,-0.085
360697,-0.070,-0.110
360698,-0.115,-0.135
360699,-0.130,-0.155
360700,-0.130,-0.150
360701,-0.190,-0.180
360702,-0.210,-0.210
360703,-0.225,-0.225
360704,-0.200,-0.275
360705,-0.180,-0.250
360706,-0.210,-0.250
360707,-0.190,-0.260
360708,-0.220,-0.285
360709,-0.210,-0.265
360710,-0.215,-0.280
360711,-0.230,-0.255
360712,-0.245,-0.250
360713,-0.225,-0.255
360714,-0.235,-0.270
360715,-0.230,-0.285
360716,-0.225,-0.250
360717,-0.220,-0.235
360718,-0.235,-0.260
360719,-0.230,-0.240
360720,-0.210,-0.260
360721,-0.220,-0.260
360722,-0.235,-0.260
360723,-0.215,-0.235
360724,-0.220,-0.240
360725,-0.230,-0.225
360726,-0.235,-0.190
360727,-0.235,-0.190
360728,-0.240,-0.105
360729,-0.230,0.050
360730,-0.195,0.285
360731,-0.130,0.625
360732,-0.060,0.940
360733,-0.200,1.155
360734,-0.580,1.375
360735,-1.145,1.625
360736,-1.930,1.895
360737,-2.610,2.075
360738,-3.020,2.070
360739,-3.190,2.050
360740,-3.100,1.940
360741,-2.970,1.795
360742,-2.755,1.605
360743,-2.590,1.470
360744,-2.520,1.350
360745,-2.350,1.275
360746,-2.170,1.380
360747,-2.030,1.550
360748,-1.945,1.790
360749,-1.820,1.840
360750,-1.680,1.530
360751,-1.550,0.920
360752,-1.420,0.385
360753,-1.275,-0.020
360754,-1.130,-0.270
360755,-0.970,-0.410
360756,-0.810,-0.495
360757,-0.650,-0.525
360758,-0.425,-0.500
360759,-0.260,-0.470
360760,-0.080,-0.470
360761,0.030,-0.460
360762,0.125,-0.460
360763,0.190,-0.470
360764,0.220,-0.465
360765,0.235,-0.450
360766,0.275,-0.430
360767,0.285,-0.410
360768,0.285,-0.420
360769,0.310,-0.425
360770,0.325,-0.420
360771,0.345,-0.390
360772,0.355,-0.400
360773,0.355,-0.385
360774,0.375,-0.375
360775,0.380,-0.380
360776,0.380,-0.380
360777,0.400,-0.365
360778,0.410,-0.380
360779,0.415,-0.365
360780,0.445,-0.385
360781,0.470,-0.370
360782,0.490,-0.370
360783,0.510,-0.380
360784,0.520,-0.400
360785,0.545,-0.405
360786,0.565,-0.420
360787,0.580,-0.420
360788,0.650,-0.440
360789,0.655,-0.475
360790,0.690,-0.485
360791,0.720,-0.520
360792,0.710,-0.540
360793,0.740,-0.510
360794,0.750,-0.515
360795,0.780,-0.520
360796,0.760,-0.540
360797,0.795,-0.550
360798,0.790,-0.520
360799,0.795,-0.500
360800,0.760,-0.450
360801,0.750,-0.420
360802,0.695,-0.385
360803,0.650,-0.345
360804,0.625,-0.320
360805,0.580,-0.285
360806,0.530,-0.245
360807,0.470,-0.205
360808,0.440,-0.190
360809,0.370,-0.150
360810,0.310,-0.130
360811,0.250,-0.140
360812,0.200,-0.140
360813,0.155,-0.125
360814,0.105,-0.120
360815,0.055,-0.125
360816,0.010,-0.150
360817,-0.020,-0.160
360818,-0.050,-0.175
360819,-0.085,-0.195
360820,-0.105,-0.205
360821,-0.125,-0.205
360822,-0.150,-0.180
360823,-0.150,-0.220
360824,-0.165,-0.190
360825,-0.175,-0.195
360826,-0.170,-0.195
360827,-0.170,-0.210
360828,-0.180,-0.225
360829,-0.180,-0.225
360830,-0.210,-0.240
360831,-0.190,-0.240
360832,-0.220,-0.240
360833,-0.200,-0.220
360834,-0.215,-0.230
360835,-0.200,-0.230
360836,-0.190,-0.250
360837,-0.175,-0.265
360838,-0.170,-0.250
360839,-0.180,-0.265
360840,-0.170,-0.290
360841,-0.190,-0.280
360842,-0.180,-0.285
360843,-0.185,-0.285
360844,-0.180,-0.300
360845,-0.185,-0.290
360846,-0.190,-0.275
360847,-0.190,-0.300
360848,-0.190,-0.295
360849,-0.170,-0.290
360850,-0.160,-0.270
360851,-0.195,-0.295
360852,-0.170,-0.295
360853,-0.180,-0.285
360854,-0.175,-0.275
360855,-0.180,-0.280
360856,-0.180,-0.280
360857,-0.200,-0.305
360858,-0.185,-0.290
360859,-0.180,-0.300
360860,-0.190,-0.310
360861,-0.170,-0.300
360862,-0.190,-0.275
360863,-0.185,-0.260
360864,-0.200,-0.280
360865,-0.210,-0.275
360866,-0.200,-0.270
360867,-0.225,-0.265
360868,-0.215,-0.270
360869,-0.210,-0.255
360870,-0.230,-0.265
360871,-0.250,-0.270
360872,-0.230,-0.265
360873,-0.220,-0.270
360874,-0.215,-0.265
360875,-0.210,-0.240
360876,-0.230,-0.225
360877,-0.220,-0.250
360878,-0.230,-0.250
360879,-0.235,-0.245
360880,-0.225,-0.245
360881,-0.240,-0.250
360882,-0.245,-0.260
360883,-0.235,-0.260
360884,-0.250,-0.240
360885,-0.245,-0.240
360886,-0.240,-0.205
360887,-0.245,-0.235
360888,-0.250,-0.230
360889,-0.240,-0.245
360890,-0.240,-0.240
360891,-0.230,-0.230
360892,-0.250,-0.225
360893,-0.255,-0.225
360894,-0.260,-0.220
360895,-0.245,-0.200
360896,-0.240,-0.190
360897,-0.250,-0.130
360898,-0.250,-0.135
360899,-0.230,-0.100
360900,-0.190,-0.070
360901,-0.155,-0.060
360902,-0.130,-0.040
360903,-0.120,0.000
360904,-0.100,-0.020
360905,-0.080,-0.010
360906,-0.080,-0.030
360907,-0.050,-0.065
360908,-0.070,-0.120
360909,-0.125,-0.100
360910,-0.180,-0.100
360911,-0.200,-0.140
360912,-0.205,-0.150
360913,-0.210,-0.145
360914,-0.230,-0.180
360915,-0.305,-0.195
360916,-0.305,-0.220
360917,-0.345,-0.265
360918,-0.325,-0.280
360919,-0.300,-0.290
360920,-0.295,-0.270
360921,-0.295,-0.275
360922,-0.315,-0.280
360923,-0.315,-0.275
360924,-0.350,-0.255
360925,-0.310,-0.275
360926,-0.300,-0.285
360927,-0.310,-0.285
360928,-0.320,-0.265
360929,-0.300,-0.260
360930,-0.315,-0.275
360931,-0.310,-0.255
360932,-0.315,-0.260
360933,-0.300,-0.255
360934,-0.320,-0.260
360935,-0.320,-0.265
360936,-0.310,-0.245
360937,-0.315,-0.240
360938,-0.330,-0.240
360939,-0.340,-0.260
360940,-0.310,-0.250
360941,-0.325,-0.200
360942,-0.320,-0.110
360943,-0.320,0.030
360944,-0.300,0.280
360945,-0.220,0.635
360946,-0.150,1.000
360947,-0.265,1.240
360948,-0.600,1.475
360949,-1.100,1.740
360950,-1.850,2.000
360951,-2.525,2.195
360952,-3.000,2.205
360953,-3.200,2.180
360954,-3.200,2.110
360955,-3.070,1.960
360956,-2.890,1.795
360957,-2.690,1.675
360958,-2.540,1.555
360959,-2.435,1.470
360960,-2.180,1.545
360961,-2.090,1.700
360962,-2.005,1.960
360963,-1.880,2.115
360964,-1.760,1.945
360965,-1.630,1.420
360966,-1.515,0.790
360967,-1.395,0.250
360968,-1.255,-0.125
360969,-1.100,-0.370
360970,-0.960,-0.485
360971,-0.800,-0.540
360972,-0.615,-0.570
360973,-0.420,-0.530
360974,-0.280,-0.490
360975,-0.120,-0.490
360976,-0.005,-0.510
360977,0.060,-0.525
360978,0.110,-0.520
360979,0.140,-0.520
360980,0.170,-0.510
360981,0.190,-0.500
360982,0.195,-0.485
360983,0.205,-0.490
360984,0.235,-0.490
360985,0.235,-0.490
360986,0.265,-0.485
360987,0.265,-0.475
360988,0.285,-0.465
360989,0.270,-0.470
360990,0.300,-0.465
360991,0.340,-0.475
360992,0.340,-0.445
360993,0.320,-0.460
360994,0.345,-0.460
360995,0.360,-0.450
360996,0.380,-0.460
360997,0.410,-0.475
360998,0.440,-0.465
360999,0.460,-0.500
361000,0.490,-0.495
361001,0.475,-0.530
361002,0.510,-0.535
361003,0.540,-0.540
361004,0.595,-0.555
361005,0.595,-0.580
361006,0.600,-0.610
361007,0.630,-0.590
361008,0.655,-0.640
361009,0.685,-0.625
361010,0.685,-0.660
361011,0.750,-0.655
361012,0.760,-0.640
361013,0.730,-0.650
361014,0.735,-0.630
361015,0.730,-0.600
361016,0.720,-0.580
361017,0.735,-0.550
361018,0.660,-0.540
361019,0.655,-0.470
361020,0.615,-0.435
361021,0.595,-0.385
361022,0.555,-0.340
361023,0.500,-0.305
361024,0.430,-0.265
361025,0.410,-0.245
361026,0.340,-0.235
361027,0.315,-0.220
361028,0.270,-0.195
361029,0.205,-0.190
361030,0.145,-0.210
361031,0.105,-0.215
361032,0.045,-0.205
361033,0.035,-0.210
361034,-0.015,-0.230
361035,-0.045,-0.225
361036,-0.070,-0.220
361037,-0.095,-0.230
361038,-0.125,-0.265
361039,-0.130,-0.250
361040,-0.150,-0.240
361041,-0.135,-0.230
361042,-0.150,-0.245
361043,-0.150,-0.245
361044,-0.150,-0.260
361045,-0.160,-0.240
361046,-0.180,-0.270
361047,-0.160,-0.265
361048,-0.165,-0.280
361049,-0.160,-0.270
361050,-0.155,-0.280
361051,-0.160,-0.285
361052,-0.160,-0.275
361053,-0.150,-0.285
361054,-0.120,-0.280
361055,-0.160,-0.295
361056,-0.150,-0.295
361057,-0.160,-0.295
361058,-0.140,-0.310
361059,-0.145,-0.315
361060,-0.155,-0.335
361061,-0.155,-0.310
361062,-0.140,-0.315
361063,-0.130,-0.300
361064,-0.145,-0.330
361065,-0.150,-0.315
361066,-0.130,-0.305
361067,-0.135,-0.315
361068,-0.145,-0.320
361069,-0.160,-0.310
361070,-0.175,-0.310
361071,-0.145,-0.310
361072,-0.155,-0.330
361073,-0.160,-0.305
361074,-0.150,-0.290
361075,-0.130,-0.295
361076,-0.145,-0.305
361077,-0.140,-0.320
361078,-0.140,-0.305
361079,-0.145,-0.285
361080,-0.130,-0.310
361081,-0.165,-0.290
361082,-0.165,-0.285
361083,-0.130,-0.300
361084,-0.175,-0.290
361085,-0.160,-0.305
361086,-0.170,-0.270
361087,-0.170,-0.300
361088,-0.170,-0.285
361089,-0.155,-0.270
361090,-0.160,-0.270
361091,-0.170,-0.275
361092,-0.180,-0.290
361093,-0.185,-0.285
361094,-0.165,-0.275
361095,-0.150,-0.280
361096,-0.160,-0.290
361097,-0.155,-0.250
361098,-0.125,-0.275
361099,-0.155,-0.250
361100,-0.155,-0.250
361101,-0.155,-0.265
361102,-0.165,-0.285
361103,-0.155,-0.230
361104,-0.145,-0.265
361105,-0.120,-0.250
361106,-0.160,-0.240
361107,-0.160,-0.235
361108,-0.140,-0.245
361109,-0.170,-0.240
361110,-0.150,-0.235
361111,-0.145,-0.230
361112,-0.140,-0.185
361113,-0.160,-0.145
361114,-0.140,-0.145
361115,-0.140,-0.095
361116,-0.060,-0.075
361117,-0.055,-0.055
361118,-0.020,-0.030
361119,-0.010,-0.010
361120,0.010,-0.005
361121,0.050,-0.030
361122,0.030,-0.045
361123,0.045,-0.085
361124,0.010,-0.085
361125,0.000,-0.090
361126,-0.045,-0.120
361127,-0.080,-0.130
361128,-0.100,-0.135
361129,-0.080,-0.140
361130,-0.090,-0.175
361131,-0.140,-0.205
361132,-0.160,-0.250
361133,-0.180,-0.270
361134,-0.185,-0.290
361135,-0.160,-0.280
361136,-0.185,-0.275
361137,-0.165,-0.265
361138,-0.175,-0.275
361139,-0.180,-0.275
361140,-0.190,-0.290
361141,-0.180,-0.265
361142,-0.190,-0.270
361143,-0.195,-0.280
361144,-0.190,-0.270
361145,-0.170,-0.250
361146,-0.205,-0.260
361147,-0.205,-0.260
361148,-0.200,-0.260
361149,-0.190,-0.265
361150,-0.200,-0.275
361151,-0.200,-0.255
361152,-0.190,-0.255
361153,-0.190,-0.265
361154,-0.205,-0.270
361155,-0.195,-0.245
361156,-0.190,-0.240
361157,-0.195,-0.205
361158,-0.185,-0.165
361159,-0.195,-0.045
361160,-0.190,0.120
361161,-0.135,0.340
361162,-0.065,0.645
361163,-0.050,0.910
361164,-0.275,1.090
361165,-0.650,1.315
361166,-1.275,1.570
361167,-2.020,1.810
361168,-2.700,1.900
361169,-3.075,1.905
361170,-3.155,1.875
361171,-3.095,1.830
361172,-2.945,1.685
361173,-2.750,1.565
361174,-2.620,1.445
361175,-2.485,1.325
361176,-2.325,1.290
361177,-2.150,1.360
361178,-2.040,1.540
361179,-1.905,1.760
361180,-1.795,1.735
361181,-1.655,1.360
361182,-1.520,0.750
361183,-1.405,0.160
361184,-1.290,-0.215
361185,-1.130,-0.415
361186,-0.985,-0.465
361187,-0.840,-0.470
361188,-0.655,-0.520
361189,-0.465,-0.495
361190,-0.245,-0.460
361191,-0.100,-0.420
361192,0.060,-0.425
361193,0.180,-0.425
361194,0.240,-0.430
361195,0.265,-0.435
361196,0.285,-0.410
361197,0.335,-0.410
361198,0.330,-0.390
361199,0.375,-0.380
361200,0.380,-0.400
361201,0.405,-0.405
361202,0.390,-0.380
361203,0.410,-0.390
361204,0.425,-0.375
361205,0.445,-0.370
361206,0.435,-0.375
361207,0.445,-0.380
361208,0.470,-0.380
361209,0.495,-0.360
361210,0.495,-0.385
361211,0.510,-0.390
361212,0.525,-0.390
361213,0.565,-0.400
361214,0.585,-0.410
361215,0.610,-0.425
361216,0.630,-0.425
361217,0.655,-0.455
361218,0.670,-0.480
361219,0.700,-0.460
361220,0.735,-0.475
361221,0.755,-0.500
361222,0.805,-0.515
361223,0.810,-0.530
361224,0.840,-0.555
361225,0.850,-0.550
361226,0.875,-0.530
361227,0.885,-0.560
361228,0.905,-0.565
361229,0.930,-0.575
361230,0.925,-0.550
361231,0.905,-0.525
361232,0.900,-0.495
361233,0.875,-0.475
361234,0.850,-0.440
361235,0.835,-0.400
361236,0.785,-0.370
361237,0.715,-0.315
361238,0.655,-0.300
361239,0.610,-0.275
361240,0.575,-0.220
361241,0.520,-0.210
361242,0.450,-0.190
361243,0.425,-0.160
361244,0.365,-0.160
361245,0.295,-0.155
361246,0.255,-0.165
361247,0.215,-0.150
361248,0.160,-0.160
361249,0.125,-0.160
361250,0.075,-0.190
361251,0.045,-0.175
361252,0.000,-0.185
361253,-0.015,-0.175
361254,-0.025,-0.185
361255,-0.045,-0.190
361256,-0.065,-0.195
361257,-0.060,-0.195
361258,-0.090,-0.200
361259,-0.065,-0.210
361260,-0.085,-0.210
361261,-0.080,-0.225
361262,-0.110,-0.225
361263,-0.105,-0.230
361264,-0.090,-0.225
361265,-0.080,-0.225
361266,-0.095,-0.250
361267,-0.100,-0.230
361268,-0.090,-0.240
361269,-0.080,-0.240
361270,-0.075,-0.250
361271,-0.075,-0.245
361272,-0.070,-0.250
361273,-0.065,-0.250
361274,-0.060,-0.265
361275,-0.080,-0.260
361276,-0.065,-0.275
361277,-0.085,-0.265
361278,-0.070,-0.285
361279,-0.085,-0.295
361280,-0.065,-0.295
361281,-0.070,-0.280
361282,-0.060,-0.295
361283,-0.085,-0.300
361284,-0.070,-0.305
361285,-0.075,-0.290
361286,-0.095,-0.280
361287,-0.090,-0.290
361288,-0.090,-0.290
361289,-0.075,-0.290
361290,-0.075,-0.280
361291,-0.095,-0.300
361292,-0.060,-0.295
361293,-0.070,-0.290
361294,-0.070,-0.290
361295,-0.080,-0.285
361296,-0.100,-0.275
361297,-0.085,-0.290
361298,-0.085,-0.265
361299,-0.095,-0.275
361300,-0.090,-0.290
361301,-0.095,-0.265
361302,-0.105,-0.275
361303,-0.145,-0.290
361304,-0.135,-0.270
361305,-0.110,-0.265
361306,-0.115,-0.265
361307,-0.100,-0.260
361308,-0.135,-0.275
361309,-0.100,-0.275
361310,-0.115,-0.265
361311,-0.100,-0.255
361312,-0.120,-0.265
361313,-0.105,-0.240
361314,-0.110,-0.250
361315,-0.110,-0.255
361316,-0.125,-0.270
361317,-0.110,-0.250
361318,-0.125,-0.245
361319,-0.105,-0.250
361320,-0.110,-0.250
361321,-0.110,-0.245
361322,-0.135,-0.235
361323,-0.120,-0.230
361324,-0.125,-0.215
361325,-0.135,-0.200
361326,-0.100,-0.175
361327,-0.105,-0.140
361328,-0.120,-0.125
361329,-0.090,-0.095
361330,-0.060,-0.075
361331,-0.030,-0.060
361332,0.000,-0.035
361333,0.035,-0.015
361334,0.060,-0.025
361335,0.075,-0.015
361336,0.070,-0.070
361337,0.045,-0.080
361338,0.015,-0.065
361339,-0.020,-0.100
361340,-0.040,-0.140
361341,-0.080,-0.165
361342,-0.085,-0.140
361343,-0.090,-0.145
361344,-0.160,-0.185
361345,-0.165,-0.245
361346,-0.125,-0.270
361347,-0.165,-0.275
361348,-0.150,-0.270
361349,-0.140,-0.280
361350,-0.170,-0.280
361351,-0.130,-0.270
361352,-0.160,-0.275
361353,-0.175,-0.285
361354,-0.180,-0.275
361355,-0.165,-0.270
361356,-0.140,-0.285
361357,-0.150,-0.250
361358,-0.155,-0.265
361359,-0.165,-0.260
361360,-0.160,-0.270
361361,-0.130,-0.285
361362,-0.130,-0.250
361363,-0.145,-0.250
361364,-0.125,-0.250
361365,-0.160,-0.245
361366,-0.155,-0.250
361367,-0.150,-0.235
361368,-0.155,-0.245
361369,-0.140,-0.245
361370,-0.140,-0.225
361371,-0.140,-0.150
361372,-0.150,-0.040
361373,-0.125,0.120
361374,-0.075,0.320
361375,-0.005,0.595
361376,0.005,0.845
361377,-0.170,1.000
361378,-0.540,1.200
361379,-1.120,1.440
361380,-1.910,1.710
361381,-2.580,1.810
361382,-3.000,1.800
361383,-3.130,1.775
361384,-3.085,1.720
361385,-2.950,1.580
361386,-2.770,1.440
361387,-2.620,1.300
361388,-2.485,1.180
361389,-2.300,1.115
361390,-2.105,1.180
361391,-1.995,1.355
361392,-1.885,1.545
361393,-1.740,1.475
361394,-1.595,1.100
361395,-1.475,0.500
361396,-1.350,-0.020
361397,-1.215,-0.330
361398,-1.080,-0.490
361399,-0.940,-0.510
361400,-0.790,-0.465
361401,-0.600,-0.465
361402,-0.395,-0.450
361403,-0.235,-0.425
361404,-0.030,-0.385
361405,0.150,-0.380
361406,0.250,-0.385
361407,0.310,-0.395
361408,0.345,-0.370
361409,0.370,-0.340
361410,0.390,-0.345
361411,0.430,-0.360
361412,0.455,-0.340
361413,0.465,-0.320
361414,0.450,-0.345
361415,0.465,-0.335
361416,0.475,-0.315
361417,0.480,-0.320
361418,0.495,-0.305
361419,0.500,-0.320
361420,0.535,-0.315
361421,0.535,-0.310
361422,0.560,-0.330
361423,0.565,-0.345
361424,0.580,-0.315
361425,0.610,-0.310
361426,0.620,-0.335
361427,0.655,-0.355
361428,0.675,-0.355
361429,0.705,-0.355
361430,0.720,-0.395
361431,0.760,-0.400
361432,0.775,-0.415
361433,0.790,-0.415
361434,0.830,-0.440
361435,0.855,-0.450
361436,0.885,-0.460
361437,0.895,-0.465
361438,0.935,-0.485
361439,0.940,-0.505
361440,0.935,-0.495
361441,0.965,-0.475
361442,0.960,-0.480
361443,0.950,-0.470
361444,0.935,-0.450
361445,0.915,-0.400
361446,0.890,-0.370
361447,0.875,-0.360
361448,0.820,-0.310
361449,0.790,-0.250
361450,0.730,-0.235
361451,0.655,-0.195
361452,0.610,-0.155
361453,0.540,-0.150
361454,0.485,-0.140
361455,0.430,-0.125
361456,0.375,-0.110
361457,0.315,-0.105
361458,0.270,-0.125
361459,0.225,-0.155
361460,0.170,-0.135
361461,0.130,-0.135
361462,0.090,-0.160
361463,0.060,-0.160
361464,0.045,-0.155
361465,0.030,-0.175
361466,0.030,-0.180
361467,0.005,-0.180
361468,0.000,-0.190
361469,-0.015,-0.175
361470,-0.010,-0.215
361471,-0.030,-0.190
361472,-0.040,-0.195
361473,-0.015,-0.190
361474,-0.025,-0.205
361475,-0.035,-0.215
361476,-0.025,-0.220
361477,-0.035,-0.210
361478,-0.025,-0.225
361479,-0.030,-0.250
361480,-0.055,-0.240
361481,-0.035,-0.235
361482,-0.020,-0.245
361483,-0.015,-0.250
361484,-0.035,-0.255
361485,-0.010,-0.255
361486,-0.025,-0.260
361487,-0.030,-0.280
361488,-0.010,-0.260
361489,-0.020,-0.240
361490,-0.030,-0.260
361491,-0.015,-0.260
361492,-0.030,-0.270
361493,-0.030,-0.260
361494,-0.030,-0.270
361495,-0.025,-0.265
361496,-0.065,-0.250
361497,-0.025,-0.255
361498,-0.040,-0.270
361499,-0.050,-0.280
361500,-0.055,-0.250
361501,-0.050,-0.250
361502,-0.070,-0.245
361503,-0.065,-0.250
361504,-0.055,-0.250
361505,-0.075,-0.240
361506,-0.040,-0.235
361507,-0.070,-0.245
361508,-0.070,-0.255
361509,-0.100,-0.240
361510,-0.090,-0.245
361511,-0.080,-0.240
361512,-0.090,-0.260
361513,-0.110,-0.245
361514,-0.100,-0.220
361515,-0.085,-0.245
361516,-0.085,-0.235
361517,-0.110,-0.235
361518,-0.100,-0.220
361519,-0.120,-0.245
361520,-0.110,-0.225
361521,-0.110,-0.230
361522,-0.100,-0.235
361523,-0.105,-0.245
361524,-0.110,-0.225
361525,-0.115,-0.235
361526,-0.090,-0.220
361527,-0.105,-0.235
361528,-0.090,-0.225
361529,-0.090,-0.205
361530,-0.090,-0.235
361531,-0.105,-0.220
361532,-0.095,-0.235
361533,-0.105,-0.200
361534,-0.105,-0.205
361535,-0.090,-0.210
361536,-0.105,-0.185
361537,-0.120,-0.140
361538,-0.120,-0.105
361539,-0.095,-0.120
361540,-0.060,-0.090
361541,-0.040,-0.055
361542,-0.015,-0.025
361543,0.025,-0.035
361544,0.030,-0.015
361545,0.075,-0.010
361546,0.100,-0.030
361547,0.085,-0.085
361548,0.085,-0.110
361549,0.035,-0.095
361550,-0.035,-0.100
361551,-0.075,-0.140
361552,-0.070,-0.165
361553,-0.090,-0.135
361554,-0.125,-0.170
361555,-0.170,-0.220
361556,-0.190,-0.235
361557,-0.195,-0.265
361558,-0.160,-0.295
361559,-0.140,-0.275
361560,-0.155,-0.280
361561,-0.160,-0.275
361562,-0.145,-0.270
361563,-0.170,-0.275
361564,-0.160,-0.260
361565,-0.170,-0.280
361566,-0.155,-0.265
361567,-0.165,-0.270
361568,-0.140,-0.275
361569,-0.160,-0.260
361570,-0.140,-0.250
361571,-0.145,-0.270
361572,-0.155,-0.275
361573,-0.165,-0.280
361574,-0.175,-0.295
361575,-0.175,-0.265
361576,-0.165,-0.270
361577,-0.160,-0.255
361578,-0.155,-0.270
361579,-0.140,-0.220
361580,-0.145,-0.150
361581,-0.180,-0.025
361582,-0.155,0.125
361583,-0.090,0.380
361584,-0.010,0.710
361585,0.005,0.935
361586,-0.200,1.105
361587,-0.625,1.295
361588,-1.270,1.545
361589,-2.085,1.755
361590,-2.705,1.835
361591,-3.065,1.805
361592,-3.145,1.720
361593,-3.055,1.615
361594,-2.895,1.415
361595,-2.725,1.280
361596,-2.595,1.165
361597,-2.485,1.065
361598,-2.265,1.085
361599,-2.125,1.270
361600,-2.030,1.510
361601,-1.925,1.610
361602,-1.770,1.395
361603,-1.615,0.830
361604,-1.495,0.220
361605,-1.360,-0.160
361606,-1.180,-0.370
361607,-1.035,-0.470
361608,-0.890,-0.510
361609,-0.700,-0.525
361610,-0.500,-0.520
361611,-0.300,-0.460
361612,-0.135,-0.415
361613,0.045,-0.400
361614,0.185,-0.400
361615,0.265,-0.405
361616,0.300,-0.415
361617,0.345,-0.375
361618,0.370,-0.370
361619,0.390,-0.375
361620,0.420,-0.365
361621,0.415,-0.335
361622,0.450,-0.325
361623,0.440,-0.340
361624,0.445,-0.330
361625,0.465,-0.330
361626,0.485,-0.320
361627,0.495,-0.320
361628,0.500,-0.320
361629,0.490,-0.295
361630,0.510,-0.290
361631,0.550,-0.285
361632,0.580,-0.295
361633,0.575,-0.305
361634,0.605,-0.295
361635,0.625,-0.340
361636,0.655,-0.340
361637,0.665,-0.340
361638,0.715,-0.345
361639,0.720,-0.390
361640,0.745,-0.395
361641,0.800,-0.410
361642,0.790,-0.425
361643,0.835,-0.440
361644,0.870,-0.440
361645,0.890,-0.445
361646,0.895,-0.480
361647,0.920,-0.470
361648,0.925,-0.475
361649,0.935,-0.470
361650,0.925,-0.480
361651,0.940,-0.440
361652,0.915,-0.415
361653,0.875,-0.370
361654,0.875,-0.350
361655,0.790,-0.305
361656,0.780,-0.260
361657,0.695,-0.225
361658,0.665,-0.180
361659,0.630,-0.170
361660,0.585,-0.140
361661,0.505,-0.120
361662,0.430,-0.110
361663,0.370,-0.105
361664,0.315,-0.095
361665,0.265,-0.110
361666,0.210,-0.130
361667,0.155,-0.105
361668,0.135,-0.135
361669,0.090,-0.125
361670,0.055,-0.130
361671,0.030,-0.145
361672,0.005,-0.160
361673,-0.025,-0.125
361674,-0.020,-0.165
361675,-0.030,-0.140
361676,-0.050,-0.175
361677,-0.055,-0.185
361678,-0.080,-0.185
361679,-0.080,-0.180
361680,-0.070,-0.200
361681,-0.080,-0.205
361682,-0.070,-0.200
361683,-0.065,-0.200
361684,-0.090,-0.215
361685,-0.075,-0.205
361686,-0.045,-0.205
361687,-0.065,-0.225
361688,-0.075,-0.235
361689,-0.065,-0.240
361690,-0.080,-0.245
361691,-0.065,-0.220
361692,-0.070,-0.225
361693,-0.070,-0.230
361694,-0.070,-0.230
361695,-0.040,-0.240
361696,-0.055,-0.265
361697,-0.055,-0.240
361698,-0.070,-0.260
361699,-0.060,-0.250
361700,-0.055,-0.235
361701,-0.065,-0.250
361702,-0.070,-0.250
361703,-0.065,-0.240
361704,-0.070,-0.240
361705,-0.075,-0.250
361706,-0.070,-0.250
361707,-0.080,-0.270
361708,-0.080,-0.280
361709,-0.085,-0.270
361710,-0.105,-0.260
361711,-0.115,-0.245
361712,-0.090,-0.250
361713,-0.075,-0.265
361714,-0.095,-0.270
361715,-0.100,-0.230
361716,-0.090,-0.240
361717,-0.115,-0.275
361718,-0.100,-0.270
361719,-0.080,-0.245
361720,-0.100,-0.245
361721,-0.100,-0.250
361722,-0.110,-0.240
361723,-0.125,-0.240
361724,-0.100,-0.220
361725,-0.110,-0.245
361726,-0.135,-0.240
361727,-0.115,-0.220
361728,-0.145,-0.230
361729,-0.155,-0.240
361730,-0.125,-0.220
361731,-0.135,-0.185
361732,-0.145,-0.200
361733,-0.140,-0.235
361734,-0.135,-0.225
361735,-0.135,-0.210
361736,-0.140,-0.195
361737,-0.155,-0.210
361738,-0.125,-0.210
361739,-0.155,-0.215
361740,-0.140,-0.225
361741,-0.145,-0.240
361742,-0.140,-0.210
361743,-0.145,-0.200
361744,-0.160,-0.190
361745,-0.160,-0.165
361746,-0.155,-0.140
361747,-0.140,-0.100
361748,-0.130,-0.080
361749,-0.110,-0.070
361750,-0.070,-0.050
361751,-0.060,-0.020
361752,-0.020,-0.035
361753,0.010,-0.025
361754,0.020,-0.015
361755,0.035,-0.040
361756,0.040,-0.075
361757,0.025,-0.110
361758,-0.020,-0.095
361759,-0.075,-0.120
361760,-0.085,-0.135
361761,-0.115,-0.145
361762,-0.130,-0.180
361763,-0.175,-0.170
361764,-0.200,-0.200
361765,-0.210,-0.245
361766,-0.205,-0.255
361767,-0.175,-0.270
361768,-0.195,-0.265
361769,-0.215,-0.285
361770,-0.220,-0.275
361771,-0.185,-0.250
361772,-0.205,-0.270
361773,-0.210,-0.265
361774,-0.220,-0.280
361775,-0.190,-0.255
361776,-0.215,-0.245
361777,-0.210,-0.270
361778,-0.210,-0.265
361779,-0.230,-0.265
361780,-0.215,-0.265
361781,-0.200,-0.260
361782,-0.200,-0.255
361783,-0.200,-0.245
361784,-0.195,-0.255
361785,-0.210,-0.255
361786,-0.215,-0.240
361787,-0.200,-0.215
361788,-0.200,-0.205
361789,-0.210,-0.120
361790,-0.200,0.020
361791,-0.160,0.250
361792,-0.105,0.565
361793,-0.030,0.920
361794,-0.095,1.210
361795,-0.390,1.395
361796,-0.830,1.640
361797,-1.550,1.905
361798,-2.305,2.120
361799,-2.845,2.190
361800,-3.105,2.130
361801,-3.115,2.010
361802,-2.985,1.865
361803,-2.820,1.715
361804,-2.605,1.550
361805,-2.515,1.445
361806,-2.350,1.430
361807,-2.165,1.580
361808,-2.020,1.810
361809,-1.925,1.995
361810,-1.790,1.915
361811,-1.650,1.425
361812,-1.510,0.780
361813,-1.405,0.260
361814,-1.235,-0.110
361815,-1.060,-0.310
361816,-0.900,-0.425
361817,-0.740,-0.505
361818,-0.530,-0.505
361819,-0.355,-0.455
361820,-0.170,-0.465
361821,0.000,-0.470
361822,0.105,-0.465
361823,0.175,-0.440
361824,0.230,-0.455
361825,0.270,-0.470
361826,0.275,-0.430
361827,0.300,-0.425
361828,0.330,-0.435
361829,0.350,-0.445
361830,0.340,-0.410
361831,0.385,-0.400
361832,0.385,-0.415
361833,0.400,-0.400
361834,0.395,-0.380
361835,0.430,-0.390
361836,0.425,-0.365
361837,0.445,-0.370
361838,0.450,-0.365
361839,0.475,-0.370
361840,0.480,-0.375
361841,0.510,-0.400
361842,0.515,-0.375
361843,0.555,-0.380
361844,0.585,-0.400
361845,0.610,-0.425
361846,0.645,-0.415
361847,0.655,-0.425
361848,0.680,-0.450
361849,0.705,-0.470
361850,0.720,-0.475
361851,0.740,-0.480
361852,0.770,-0.505
361853,0.795,-0.515
361854,0.815,-0.510
361855,0.825,-0.520
361856,0.865,-0.515
361857,0.885,-0.530
361858,0.860,-0.495
361859,0.870,-0.470
361860,0.845,-0.440
361861,0.815,-0.410
361862,0.810,-0.360
361863,0.765,-0.330
361864,0.725,-0.290
361865,0.670,-0.250
361866,0.615,-0.220
361867,0.585,-0.175
361868,0.525,-0.140
361869,0.460,-0.135
361870,0.415,-0.115
361871,0.335,-0.100
361872,0.305,-0.105
361873,0.240,-0.115
361874,0.185,-0.095
361875,0.145,-0.110
361876,0.105,-0.130
361877,0.055,-0.140
361878,0.030,-0.155
361879,0.000,-0.150
361880,-0.025,-0.155
361881,-0.025,-0.155
361882,-0.045,-0.170
361883,-0.060,-0.160
361884,-0.050,-0.185
361885,-0.050,-0.185
361886,-0.075,-0.180
361887,-0.085,-0.180
361888,-0.075,-0.175
361889,-0.085,-0.190
361890,-0.100,-0.165
361891,-0.070,-0.190
361892,-0.080,-0.190
361893,-0.080,-0.200
361894,-0.095,-0.215
361895,-0.075,-0.190
361896,-0.080,-0.200
361897,-0.080,-0.210
361898,-0.065,-0.205
361899,-0.065,-0.215
361900,-0.050,-0.210
361901,-0.080,-0.245
361902,-0.060,-0.240
361903,-0.065,-0.240
361904,-0.065,-0.230
361905,-0.045,-0.235
361906,-0.070,-0.230
361907,-0.040,-0.235
361908,-0.055,-0.240
361909,-0.050,-0.245
361910,-0.070,-0.265
361911,-0.065,-0.245
361912,-0.030,-0.240
361913,-0.060,-0.255
361914,-0.050,-0.265
361915,-0.060,-0.255
361916,-0.045,-0.255
361917,-0.055,-0.255
361918,-0.060,-0.245
361919,-0.055,-0.230
361920,-0.070,-0.240
361921,-0.065,-0.245
361922,-0.060,-0.260
361923,-0.075,-0.250
361924,-0.075,-0.235
361925,-0.075,-0.245
361926,-0.080,-0.230
361927,-0.085,-0.245
361928,-0.090,-0.245
361929,-0.120,-0.240
361930,-0.100,-0.225
361931,-0.100,-0.235
361932,-0.085,-0.225
361933,-0.105,-0.200
361934,-0.090,-0.230
361935,-0.100,-0.195
361936,-0.100,-0.200
361937,-0.090,-0.185
361938,-0.090,-0.200
361939,-0.080,-0.200
361940,-0.080,-0.205
361941,-0.080,-0.200
361942,-0.100,-0.190
361943,-0.095,-0.190
361944,-0.080,-0.200
361945,-0.090,-0.200
361946,-0.095,-0.185
361947,-0.075,-0.185
361948,-0.090,-0.170
361949,-0.080,-0.160
361950,-0.090,-0.175
361951,-0.120,-0.130
361952,-0.110,-0.095
361953,-0.120,-0.085
361954,-0.095,-0.070
361955,-0.050,-0.055
361956,-0.020,-0.015
361957,0.015,-0.010
361958,0.025,0.010
361959,0.045,0.025
361960,0.085,0.015
361961,0.075,0.000
361962,0.100,-0.035
361963,0.085,-0.035
361964,0.030,-0.055
361965,0.005,-0.080
361966,-0.040,-0.105
361967,-0.055,-0.115
361968,-0.055,-0.115
361969,-0.060,-0.135
361970,-0.145,-0.175
361971,-0.140,-0.205
361972,-0.130,-0.225
361973,-0.115,-0.240
361974,-0.120,-0.235
361975,-0.135,-0.235
361976,-0.145,-0.220
361977,-0.145,-0.230
361978,-0.145,-0.245
361979,-0.150,-0.240
361980,-0.145,-0.230
361981,-0.160,-0.255
361982,-0.145,-0.245
361983,-0.150,-0.210
361984,-0.155,-0.230
361985,-0.155,-0.245
361986,-0.155,-0.225
361987,-0.150,-0.240
361988,-0.180,-0.245
361989,-0.165,-0.220
361990,-0.155,-0.240
361991,-0.150,-0.230
361992,-0.160,-0.225
361993,-0.165,-0.220
361994,-0.150,-0.210
361995,-0.160,-0.210
361996,-0.155,-0.150
361997,-0.140,-0.060
361998,-0.140,0.080
361999,-0.105,0.300
362000,-0.060,0.600
362001,0.020,0.870
362002,-0.100,1.060
362003,-0.410,1.240
362004,-0.915,1.485
362005,-1.655,1.750
362006,-2.355,1.950
362007,-2.845,1.955
362008,-3.075,1.950
362009,-3.060,1.905
362010,-2.950,1.825
362011,-2.785,1.710
362012,-2.635,1.585
362013,-2.520,1.455
362014,-2.375,1.345
362015,-2.205,1.310
362016,-2.055,1.440
362017,-1.950,1.650
362018,-1.835,1.845
362019,-1.710,1.730
362020,-1.555,1.265
362021,-1.445,0.620
362022,-1.330,0.085
362023,-1.175,-0.230
362024,-1.030,-0.385
362025,-0.905,-0.445
362026,-0.735,-0.465
362027,-0.530,-0.455
362028,-0.360,-0.450
362029,-0.170,-0.415
362030,0.000,-0.410
362031,0.165,-0.415
362032,0.250,-0.405
362033,0.315,-0.410
362034,0.345,-0.400
362035,0.375,-0.390
362036,0.410,-0.385
362037,0.430,-0.380
362038,0.430,-0.365
362039,0.450,-0.380
362040,0.475,-0.365
362041,0.485,-0.350
362042,0.485,-0.340
362043,0.505,-0.335
362044,0.490,-0.340
362045,0.500,-0.350
362046,0.530,-0.340
362047,0.530,-0.350
362048,0.550,-0.365
362049,0.555,-0.355
362050,0.585,-0.355
362051,0.600,-0.360
362052,0.625,-0.360
362053,0.670,-0.360
362054,0.655,-0.375
362055,0.695,-0.405
362056,0.725,-0.425
362057,0.745,-0.450
362058,0.775,-0.430
362059,0.805,-0.450
362060,0.815,-0.465
362061,0.855,-0.495
362062,0.870,-0.480
362063,0.880,-0.505
362064,0.910,-0.530
362065,0.955,-0.555
362066,0.970,-0.555
362067,0.960,-0.530
362068,0.990,-0.535
362069,0.965,-0.505
362070,0.965,-0.495
362071,0.940,-0.435
362072,0.920,-0.435
362073,0.890,-0.375
362074,0.865,-0.345
362075,0.805,-0.310
362076,0.750,-0.270
362077,0.730,-0.230
362078,0.665,-0.200
362079,0.615,-0.180
362080,0.560,-0.150
362081,0.480,-0.130
362082,0.420,-0.130
362083,0.405,-0.100
362084,0.335,-0.115
362085,0.280,-0.130
362086,0.235,-0.110
362087,0.195,-0.125
362088,0.130,-0.130
362089,0.115,-0.135
362090,0.100,-0.130
362091,0.085,-0.155
362092,0.050,-0.160
362093,0.030,-0.165
362094,0.010,-0.160
362095,0.005,-0.175
362096,-0.015,-0.180
362097,0.000,-0.185
362098,0.010,-0.170
362099,0.005,-0.170
362100,-0.005,-0.185
362101,0.000,-0.205
362102,0.005,-0.195
362103,0.005,-0.195
362104,-0.015,-0.205
362105,0.010,-0.195
362106,-0.005,-0.225
362107,0.000,-0.215
362108,0.000,-0.225
362109,-0.005,-0.215
362110,0.015,-0.210
362111,0.005,-0.210
362112,0.015,-0.220
362113,0.015,-0.220
362114,0.010,-0.250
362115,0.005,-0.240
362116,0.035,-0.240
362117,0.030,-0.245
362118,0.025,-0.235
362119,0.030,-0.230
362120,0.025,-0.240
362121,0.025,-0.235
362122,0.040,-0.235
362123,0.025,-0.245
362124,0.035,-0.240
362125,0.030,-0.255
362126,0.000,-0.255
362127,0.010,-0.240
362128,0.030,-0.230
362129,0.015,-0.220
362130,0.030,-0.220
362131,0.025,-0.225
362132,0.035,-0.215
362133,0.015,-0.235
362134,0.025,-0.230
362135,0.025,-0.200
362136,0.045,-0.205
362137,0.010,-0.200
362138,0.000,-0.195
362139,0.000,-0.190
362140,-0.005,-0.200
362141,0.010,-0.185
362142,0.000,-0.215
362143,-0.010,-0.190
362144,-0.010,-0.185
362145,0.000,-0.195
362146,-0.015,-0.195
362147,-0.005,-0.215
362148,0.000,-0.210
362149,-0.025,-0.185
362150,-0.015,-0.195
362151,-0.005,-0.205
362152,-0.025,-0.180
362153,-0.015,-0.180
362154,-0.005,-0.180
362155,-0.040,-0.185
362156,-0.020,-0.190
362157,-0.035,-0.155
362158,-0.030,-0.160
362159,-0.040,-0.180
362160,-0.040,-0.150
362161,-0.025,-0.105
362162,-0.030,-0.070
362163,-0.055,-0.045
362164,-0.025,-0.035
362165,0.015,-0.010
362166,0.030,0.000
362167,0.070,0.035
362168,0.075,0.040
362169,0.110,0.055
362170,0.120,0.045
362171,0.150,0.005
362172,0.140,-0.030
362173,0.120,-0.045
362174,0.070,-0.040
362175,0.035,-0.065
362176,0.010,-0.105
362177,-0.005,-0.105
362178,-0.010,-0.095
362179,-0.045,-0.115
362180,-0.070,-0.165
362181,-0.070,-0.175
362182,-0.065,-0.210
362183,-0.065,-0.220
362184,-0.070,-0.230
362185,-0.080,-0.210
362186,-0.075,-0.210
362187,-0.065,-0.230
362188,-0.070,-0.220
362189,-0.060,-0.210
362190,-0.080,-0.190
362191,-0.070,-0.200
362192,-0.060,-0.225
362193,-0.090,-0.210
362194,-0.090,-0.210
362195,-0.080,-0.220
362196,-0.090,-0.225
362197,-0.080,-0.210
362198,-0.080,-0.215
362199,-0.100,-0.215
362200,-0.070,-0.220
362201,-0.110,-0.225
362202,-0.110,-0.195
362203,-0.075,-0.180
362204,-0.085,-0.175
362205,-0.085,-0.155
362206,-0.080,-0.085
362207,-0.080,0.000
362208,-0.085,0.150
362209,-0.050,0.325
362210,0.010,0.640
362211,0.095,0.860
362212,-0.060,1.045
362213,-0.435,1.225
362214,-1.015,1.510
362215,-1.780,1.790
362216,-2.485,1.875
362217,-2.900,1.870
362218,-3.035,1.845
362219,-2.960,1.790
362220,-2.855,1.645
362221,-2.665,1.510
362222,-2.510,1.370
362223,-2.375,1.235
362224,-2.220,1.140
362225,-2.050,1.220
362226,-1.895,1.410
362227,-1.790,1.590
362228,-1.660,1.550
362229,-1.540,1.165
362230,-1.405,0.540
362231,-1.305,0.010
362232,-1.165,-0.300
362233,-1.015,-0.445
362234,-0.870,-0.450
362235,-0.715,-0.440
362236,-0.525,-0.435
362237,-0.345,-0.440
362238,-0.120,-0.375
362239,0.050,-0.360
362240,0.215,-0.350
362241,0.300,-0.345
362242,0.365,-0.350
362243,0.395,-0.355
362244,0.445,-0.335
362245,0.450,-0.335
362246,0.460,-0.340
362247,0.490,-0.320
362248,0.530,-0.330
362249,0.520,-0.340
362250,0.530,-0.315
362251,0.535,-0.330
362252,0.545,-0.330
362253,0.560,-0.305
362254,0.570,-0.310
362255,0.590,-0.315
362256,0.580,-0.305
362257,0.615,-0.300
362258,0.620,-0.315
362259,0.625,-0.320
362260,0.680,-0.295
362261,0.685,-0.335
362262,0.705,-0.355
362263,0.730,-0.365
362264,0.740,-0.365
362265,0.755,-0.380
362266,0.780,-0.390
362267,0.820,-0.400
362268,0.855,-0.405
362269,0.895,-0.415
362270,0.920,-0.460
362271,0.950,-0.475
362272,0.965,-0.460
362273,0.990,-0.480
362274,0.995,-0.515
362275,0.995,-0.490
362276,1.040,-0.485
362277,1.025,-0.470
362278,1.010,-0.490
362279,1.030,-0.440
362280,1.015,-0.400
362281,0.995,-0.395
362282,0.950,-0.360
362283,0.910,-0.315
362284,0.880,-0.280
362285,0.820,-0.245
362286,0.765,-0.225
362287,0.705,-0.175
362288,0.680,-0.155
362289,0.625,-0.125
362290,0.555,-0.135
362291,0.470,-0.100
362292,0.415,-0.100
362293,0.395,-0.120
362294,0.340,-0.125
362295,0.270,-0.130
362296,0.230,-0.130
362297,0.180,-0.140
362298,0.145,-0.160
362299,0.120,-0.150
362300,0.090,-0.155
362301,0.090,-0.165
362302,0.060,-0.170
362303,0.060,-0.160
362304,0.050,-0.175
362305,0.045,-0.185
362306,0.045,-0.185
362307,0.020,-0.185
362308,0.025,-0.185
362309,0.020,-0.180
362310,0.025,-0.190
362311,0.015,-0.205
362312,0.025,-0.210
362313,0.020,-0.205
362314,0.035,-0.210
362315,0.020,-0.210
362316,0.015,-0.205
362317,0.025,-0.205
362318,0.040,-0.205
362319,0.040,-0.230
362320,0.025,-0.230
362321,0.025,-0.215
362322,0.020,-0.235
362323,0.015,-0.235
362324,0.030,-0.230
362325,0.015,-0.225
362326,0.035,-0.225
362327,0.035,-0.230
362328,0.035,-0.230
362329,0.045,-0.240
362330,0.050,-0.245
362331,0.025,-0.240
362332,0.030,-0.240
362333,0.035,-0.245
362334,0.020,-0.260
362335,0.030,-0.230
362336,0.020,-0.255
362337,0.025,-0.230
362338,0.045,-0.230
362339,0.000,-0.235
362340,0.030,-0.195
362341,0.010,-0.205
362342,-0.005,-0.220
362343,0.000,-0.215
362344,0.010,-0.230
362345,0.025,-0.210
362346,0.010,-0.200
362347,0.025,-0.205
362348,0.000,-0.210
362349,-0.015,-0.210
362350,0.025,-0.215
362351,0.005,-0.215
362352,0.000,-0.220
362353,0.000,-0.190
362354,-0.005,-0.205
362355,-0.010,-0.195
362356,-0.015,-0.200
362357,-0.005,-0.215
362358,-0.020,-0.230
362359,0.010,-0.220
362360,-0.010,-0.185
362361,0.015,-0.190
362362,0.000,-0.180
362363,0.000,-0.180
362364,-0.005,-0.180
362365,-0.005,-0.170
362366,-0.015,-0.185
362367,-0.025,-0.195
362368,-0.005,-0.185
362369,-0.020,-0.175
362370,-0.010,-0.160
362371,0.000,-0.185
362372,0.015,-0.150
362373,-0.005,-0.090
362374,0.000,-0.065
362375,0.005,-0.050
362376,0.035,-0.015
362377,0.075,-0.015
362378,0.105,0.015
362379,0.145,0.030
362380,0.150,0.060
362381,0.170,0.035
362382,0.190,0.020
362383,0.200,-0.015
362384,0.200,-0.035
362385,0.160,-0.035
362386,0.125,-0.065
362387,0.100,-0.095
362388,0.065,-0.110
362389,0.040,-0.105
362390,0.010,-0.075
362391,-0.025,-0.120
362392,-0.025,-0.155
362393,-0.045,-0.175
362394,-0.035,-0.205
362395,-0.015,-0.205
362396,-0.035,-0.220
362397,-0.020,-0.205
362398,-0.030,-0.195
362399,-0.030,-0.210
362400,-0.040,-0.190
362401,-0.035,-0.205
362402,-0.020,-0.225
362403,-0.025,-0.215
362404,-0.045,-0.210
362405,-0.060,-0.180
362406,-0.045,-0.200
362407,-0.025,-0.205
362408,-0.040,-0.220
362409,-0.035,-0.225
362410,-0.030,-0.205
362411,-0.055,-0.190
362412,-0.050,-0.220
362413,-0.040,-0.205
362414,-0.025,-0.180
362415,-0.065,-0.185
362416,-0.030,-0.160
362417,-0.050,-0.150
362418,-0.040,-0.060
362419,-0.055,0.075
362420,0.000,0.235
362421,0.045,0.475
362422,0.120,0.790
362423,0.115,1.025
362424,-0.100,1.180
362425,-0.535,1.425
362426,-1.185,1.650
362427,-1.955,1.880
362428,-2.555,1.920
362429,-2.905,1.900
362430,-2.990,1.840
362431,-2.895,1.675
362432,-2.730,1.490
362433,-2.545,1.390
362434,-2.430,1.235
362435,-2.285,1.135
362436,-2.100,1.185
362437,-1.970,1.355
362438,-1.885,1.590
362439,-1.760,1.720
362440,-1.625,1.490
362441,-1.460,0.950
362442,-1.350,0.330
362443,-1.230,-0.065
362444,-1.070,-0.315
362445,-0.900,-0.410
362446,-0.760,-0.435
362447,-0.575,-0.450
362448,-0.405,-0.445
362449,-0.220,-0.390
362450,-0.040,-0.360
362451,0.125,-0.350
362452,0.275,-0.355
362453,0.350,-0.350
362454,0.400,-0.345
362455,0.440,-0.335
362456,0.460,-0.345
362457,0.490,-0.340
362458,0.485,-0.310
362459,0.505,-0.300
362460,0.515,-0.285
362461,0.550,-0.280
362462,0.565,-0.295
362463,0.540,-0.275
362464,0.565,-0.280
362465,0.580,-0.265
362466,0.600,-0.270
362467,0.620,-0.260
362468,0.600,-0.250
362469,0.630,-0.250
362470,0.650,-0.250
362471,0.680,-0.240
362472,0.665,-0.260
362473,0.690,-0.280
362474,0.715,-0.300
362475,0.740,-0.300
362476,0.780,-0.310
362477,0.810,-0.320
362478,0.850,-0.345
362479,0.855,-0.360
362480,0.885,-0.360
362481,0.910,-0.390
362482,0.930,-0.430
362483,0.955,-0.455
362484,0.965,-0.440
362485,1.010,-0.450
362486,1.020,-0.450
362487,1.030,-0.460
362488,1.025,-0.450
362489,1.025,-0.445
362490,1.040,-0.415
362491,0.990,-0.390
362492,0.980,-0.370
362493,0.940,-0.335
362494,0.935,-0.305
362495,0.885,-0.270
362496,0.815,-0.220
362497,0.750,-0.200
362498,0.720,-0.155
362499,0.645,-0.110
362500,0.605,-0.105
362501,0.535,-0.115
362502,0.500,-0.100
362503,0.420,-0.095
362504,0.360,-0.095
362505,0.310,-0.100
362506,0.285,-0.120
362507,0.235,-0.130
362508,0.210,-0.115
362509,0.160,-0.120
362510,0.125,-0.145
362511,0.110,-0.145
362512,0.045,-0.170
362513,0.055,-0.160
362514,0.060,-0.180
362515,0.030,-0.165
362516,0.040,-0.170
362517,0.010,-0.170
362518,0.020,-0.170
362519,0.025,-0.185
362520,0.005,-0.195
362521,0.005,-0.205
362522,0.000,-0.200
362523,-0.015,-0.205
362524,0.005,-0.195
362525,-0.010,-0.225
362526,-0.020,-0.215
362527,-0.005,-0.220
362528,0.000,-0.220
362529,0.010,-0.230
362530,0.000,-0.245
362531,-0.005,-0.255
362532,0.000,-0.240
362533,0.015,-0.230
362534,0.010,-0.255
362535,0.035,-0.250
362536,0.015,-0.225
362537,0.030,-0.265
362538,0.025,-0.270
362539,0.045,-0.255
362540,0.030,-0.245
362541,0.010,-0.285
362542,0.015,-0.270
362543,0.025,-0.265
362544,0.025,-0.265
362545,0.005,-0.290
362546,0.010,-0.275
362547,0.000,-0.270
362548,0.025,-0.270
362549,0.000,-0.290
362550,-0.005,-0.270
362551,-0.020,-0.265
362552,-0.015,-0.275
362553,-0.025,-0.285
362554,-0.025,-0.285
362555,-0.040,-0.255
362556,-0.025,-0.265
362557,-0.040,-0.290
362558,-0.040,-0.260
362559,-0.060,-0.260
362560,-0.060,-0.245
362561,-0.045,-0.260
362562,-0.050,-0.250
362563,-0.045,-0.235
362564,-0.055,-0.240
362565,-0.045,-0.260
362566,-0.040,-0.255
362567,-0.045,-0.255
362568,-0.055,-0.240
362569,-0.040,-0.235
362570,-0.070,-0.245
362571,-0.050,-0.260
362572,-0.035,-0.255
362573,-0.055,-0.240
362574,-0.080,-0.220
362575,-0.055,-0.205
362576,-0.060,-0.230
362577,-0.080,-0.225
362578,-0.070,-0.230
362579,-0.040,-0.220
362580,-0.055,-0.200
362581,-0.060,-0.210
362582,-0.080,-0.220
362583,-0.065,-0.205
362584,-0.060,-0.210
362585,-0.060,-0.225
362586,-0.060,-0.210
362587,-0.065,-0.180
362588,-0.050,-0.155
362589,-0.060,-0.125
362590,-0.040,-0.110
362591,-0.040,-0.080
362592,-0.010,-0.050
362593,0.010,-0.030
362594,0.030,-0.005
362595,0.075,0.005
362596,0.105,-0.015
362597,0.100,-0.045
362598,0.105,-0.080
362599,0.090,-0.080
362600,0.085,-0.080
362601,0.040,-0.080
362602,0.010,-0.115
362603,0.000,-0.170
362604,-0.025,-0.175
362605,-0.055,-0.190
362606,-0.115,-0.175
362607,-0.140,-0.200
362608,-0.165,-0.280
362609,-0.130,-0.295
362610,-0.110,-0.280
362611,-0.105,-0.270
362612,-0.115,-0.260
362613,-0.115,-0.285
362614,-0.095,-0.295
362615,-0.115,-0.280
362616,-0.100,-0.275
362617,-0.115,-0.300
362618,-0.120,-0.285
362619,-0.115,-0.280
362620,-0.125,-0.280
362621,-0.110,-0.280
362622,-0.110,-0.265
362623,-0.100,-0.275
362624,-0.125,-0.240
362625,-0.095,-0.260
362626,-0.125,-0.265
362627,-0.120,-0.255
362628,-0.110,-0.250
362629,-0.105,-0.240
362630,-0.100,-0.240
362631,-0.090,-0.215
362632,-0.110,-0.155
362633,-0.095,-0.080
362634,-0.095,0.080
362635,-0.045,0.345
362636,0.025,0.715
362637,0.080,1.075
362638,-0.060,1.325
362639,-0.410,1.595
362640,-0.940,1.855
362641,-1.740,2.145
362642,-2.415,2.310
362643,-2.890,2.325
362644,-3.095,2.260
362645,-3.000,2.165
362646,-2.830,1.965
362647,-2.615,1.805
362648,-2.455,1.680
362649,-2.320,1.575
362650,-2.150,1.580
362651,-1.985,1.730
362652,-1.880,1.970
362653,-1.755,2.180
362654,-1.645,2.085
362655,-1.510,1.625
362656,-1.370,0.985
362657,-1.220,0.415
362658,-1.105,-0.025
362659,-0.940,-0.290
362660,-0.790,-0.420
362661,-0.615,-0.495
362662,-0.405,-0.540
362663,-0.230,-0.525
362664,-0.080,-0.500
362665,0.070,-0.485
362666,0.200,-0.510
362667,0.275,-0.510
362668,0.325,-0.520
362669,0.355,-0.500
362670,0.370,-0.505
362671,0.410,-0.495
362672,0.420,-0.465
362673,0.450,-0.475
362674,0.455,-0.480
362675,0.465,-0.450
362676,0.480,-0.440
362677,0.510,-0.435
362678,0.510,-0.435
362679,0.520,-0.435
362680,0.540,-0.425
362681,0.525,-0.405
362682,0.550,-0.400
362683,0.575,-0.400
362684,0.565,-0.410
362685,0.590,-0.395
362686,0.615,-0.410
362687,0.640,-0.385
362688,0.680,-0.390
362689,0.705,-0.410
362690,0.735,-0.445
362691,0.750,-0.450
362692,0.765,-0.450
362693,0.790,-0.460
362694,0.800,-0.490
362695,0.835,-0.510
362696,0.865,-0.505
362697,0.915,-0.500
362698,0.905,-0.520
362699,0.910,-0.510
362700,0.925,-0.490
362701,0.945,-0.490
362702,0.920,-0.495
362703,0.935,-0.465
362704,0.910,-0.445
362705,0.900,-0.395
362706,0.840,-0.380
362707,0.810,-0.330
362708,0.785,-0.280
362709,0.740,-0.255
362710,0.720,-0.215
362711,0.675,-0.185
362712,0.610,-0.150
362713,0.550,-0.130
362714,0.495,-0.130
362715,0.450,-0.100
362716,0.385,-0.120
362717,0.330,-0.115
362718,0.290,-0.130
362719,0.230,-0.120
362720,0.195,-0.120
362721,0.145,-0.120
362722,0.110,-0.155
362723,0.080,-0.180
362724,0.035,-0.150
362725,0.050,-0.185
362726,0.025,-0.200
362727,0.005,-0.185
362728,0.000,-0.175
362729,-0.015,-0.180
362730,0.000,-0.200
362731,-0.020,-0.195
362732,-0.035,-0.210
362733,-0.040,-0.195
362734,-0.040,-0.215
362735,-0.015,-0.230
362736,-0.025,-0.235
362737,-0.020,-0.225
362738,-0.025,-0.240
362739,-0.020,-0.210
362740,-0.040,-0.235
362741,-0.030,-0.235
362742,0.000,-0.230
362743,-0.025,-0.245
362744,-0.035,-0.265
362745,-0.010,-0.255
362746,-0.015,-0.270
362747,-0.025,-0.265
362748,-0.025,-0.285
362749,-0.005,-0.280
362750,-0.025,-0.295
362751,-0.010,-0.275
362752,-0.020,-0.280
362753,-0.020,-0.275
362754,-0.015,-0.305
362755,0.000,-0.300
362756,-0.015,-0.320
362757,0.000,-0.290
362758,-0.010,-0.315
362759,0.000,-0.315
362760,0.000,-0.305
362761,-0.020,-0.305
362762,-0.035,-0.295
362763,-0.025,-0.305
362764,-0.035,-0.305
362765,-0.045,-0.330
362766,-0.040,-0.320
362767,-0.040,-0.300
362768,-0.060,-0.305
362769,-0.045,-0.290
362770,-0.060,-0.280
362771,-0.050,-0.295
362772,-0.025,-0.305
362773,-0.055,-0.270
362774,-0.050,-0.295
362775,-0.035,-0.290
362776,-0.055,-0.290
362777,-0.080,-0.275
362778,-0.090,-0.275
362779,-0.065,-0.300
362780,-0.060,-0.290
362781,-0.075,-0.265
362782,-0.080,-0.290
362783,-0.075,-0.295
362784,-0.080,-0.295
362785,-0.055,-0.270
362786,-0.045,-0.250
362787,-0.065,-0.255
362788,-0.050,-0.275
362789,-0.050,-0.255
362790,-0.050,-0.255
362791,-0.060,-0.265
362792,-0.070,-0.270
362793,-0.075,-0.265
362794,-0.080,-0.270
362795,-0.070,-0.275
362796,-0.075,-0.265
362797,-0.085,-0.255
362798,-0.060,-0.240
362799,-0.060,-0.220
362800,-0.080,-0.160
362801,-0.080,-0.150
362802,-0.070,-0.120
362803,-0.025,-0.100
362804,0.020,-0.080
362805,0.035,-0.050
362806,0.055,-0.020
362807,0.085,-0.035
362808,0.130,-0.030
362809,0.130,-0.040
362810,0.125,-0.095
362811,0.115,-0.120
362812,0.070,-0.110
362813,0.030,-0.115
362814,-0.005,-0.170
362815,0.000,-0.160
362816,-0.025,-0.185
362817,-0.050,-0.185
362818,-0.080,-0.230
362819,-0.105,-0.280
362820,-0.090,-0.290
362821,-0.105,-0.285
362822,-0.090,-0.290
362823,-0.095,-0.285
362824,-0.090,-0.285
362825,-0.105,-0.285
362826,-0.080,-0.280
362827,-0.100,-0.285
362828,-0.100,-0.295
362829,-0.095,-0.275
362830,-0.105,-0.275
362831,-0.095,-0.280
362832,-0.090,-0.275
362833,-0.100,-0.270
362834,-0.105,-0.280
362835,-0.110,-0.285
362836,-0.100,-0.270
362837,-0.115,-0.275
362838,-0.105,-0.290
362839,-0.090,-0.265
362840,-0.095,-0.280
362841,-0.095,-0.265
362842,-0.085,-0.245
362843,-0.095,-0.225
362844,-0.080,-0.145
362845,-0.100,0.000
362846,-0.080,0.175
362847,-0.015,0.470
362848,0.085,0.835
362849,0.020,1.100
362850,-0.225,1.330
362851,-0.650,1.565
362852,-1.350,1.880
362853,-2.135,2.035
362854,-2.695,2.105
362855,-2.980,2.075
362856,-3.020,2.045
362857,-2.890,1.890
362858,-2.695,1.745
362859,-2.495,1.630
362860,-2.370,1.510
362861,-2.215,1.460
362862,-2.030,1.535
362863,-1.880,1.745
362864,-1.770,2.020
362865,-1.675,2.075
362866,-1.560,1.730
362867,-1.410,1.080
362868,-1.305,0.430
362869,-1.185,0.005
362870,-1.035,-0.255
362871,-0.885,-0.405
362872,-0.730,-0.460
362873,-0.570,-0.510
362874,-0.395,-0.495
362875,-0.215,-0.470
362876,-0.035,-0.455
362877,0.130,-0.450
362878,0.245,-0.460
362879,0.305,-0.465
362880,0.350,-0.465
362881,0.405,-0.425
362882,0.425,-0.445
362883,0.445,-0.435
362884,0.450,-0.430
362885,0.470,-0.410
362886,0.485,-0.405
362887,0.490,-0.400
362888,0.480,-0.425
362889,0.515,-0.410
362890,0.520,-0.390
362891,0.550,-0.385
362892,0.565,-0.380
362893,0.590,-0.385
362894,0.615,-0.390
362895,0.605,-0.385
362896,0.655,-0.395
362897,0.650,-0.380
362898,0.645,-0.380
362899,0.675,-0.390
362900,0.690,-0.425
362901,0.730,-0.425
362902,0.740,-0.465
362903,0.775,-0.450
362904,0.795,-0.500
362905,0.825,-0.505
362906,0.840,-0.515
362907,0.865,-0.525
362908,0.895,-0.550
362909,0.915,-0.555
362910,0.955,-0.570
362911,0.975,-0.580
362912,1.015,-0.585
362913,0.995,-0.590
362914,1.000,-0.560
362915,1.005,-0.550
362916,0.970,-0.540
362917,0.995,-0.490
362918,0.960,-0.440
362919,0.920,-0.410
362920,0.870,-0.370
362921,0.845,-0.330
362922,0.815,-0.280
362923,0.765,-0.240
362924,0.695,-0.215
362925,0.660,-0.175
362926,0.575,-0.155
362927,0.530,-0.140
362928,0.485,-0.120
362929,0.445,-0.120
362930,0.400,-0.110
362931,0.355,-0.115
362932,0.310,-0.140
362933,0.270,-0.145
362934,0.220,-0.135
362935,0.185,-0.135
362936,0.155,-0.145
362937,0.140,-0.145
362938,0.120,-0.145
362939,0.105,-0.150
362940,0.080,-0.145
362941,0.075,-0.145
362942,0.065,-0.180
362943,0.070,-0.170
362944,0.060,-0.175
362945,0.050,-0.175
362946,0.060,-0.185
362947,0.050,-0.190
362948,0.030,-0.185
362949,0.040,-0.195
362950,0.040,-0.195
362951,0.035,-0.215
362952,0.055,-0.205
362953,0.060,-0.220
362954,0.065,-0.205
362955,0.075,-0.200
362956,0.060,-0.200
362957,0.060,-0.205
362958,0.045,-0.235
362959,0.055,-0.230
362960,0.030,-0.240
362961,0.045,-0.230
362962,0.060,-0.255
362963,0.050,-0.230
362964,0.035,-0.235
362965,0.035,-0.270
362966,0.030,-0.240
362967,0.050,-0.230
362968,0.040,-0.235
362969,0.030,-0.255
362970,0.035,-0.240
362971,0.030,-0.250
362972,0.015,-0.245
362973,0.010,-0.255
362974,0.005,-0.250
362975,0.010,-0.225
362976,0.030,-0.225
362977,0.020,-0.230
362978,0.000,-0.235
362979,0.000,-0.240
362980,0.020,-0.230
362981,0.025,-0.230
362982,0.030,-0.230
362983,0.015,-0.205
362984,0.000,-0.225
362985,0.010,-0.235
362986,0.010,-0.225
362987,-0.005,-0.195
362988,0.010,-0.205
362989,-0.005,-0.230
362990,-0.015,-0.215
362991,0.020,-0.220
362992,0.000,-0.215
362993,0.000,-0.190
362994,0.010,-0.200
362995,0.000,-0.185
362996,-0.020,-0.190
362997,-0.025,-0.185
362998,-0.035,-0.200
362999,-0.040,-0.205
363000,-0.020,-0.215
363001,-0.020,-0.200
363002,-0.010,-0.200
363003,-0.020,-0.210
363004,-0.015,-0.185
363005,-0.010,-0.190
363006,-0.040,-0.200
363007,-0.040,-0.190
363008,-0.030,-0.190
363009,-0.030,-0.190
363010,-0.045,-0.200
363011,-0.060,-0.220
363012,-0.040,-0.200
363013,-0.055,-0.115
363014,-0.025,-0.100
363015,-0.035,-0.095
363016,0.000,-0.090
363017,0.020,-0.045
363018,0.050,-0.020
363019,0.095,-0.005
363020,0.120,0.000
363021,0.155,0.020
363022,0.145,0.005
363023,0.145,-0.060
363024,0.140,-0.075
363025,0.120,-0.065
363026,0.090,-0.080
363027,0.025,-0.110
363028,0.020,-0.145
363029,0.025,-0.140
363030,0.030,-0.140
363031,-0.020,-0.175
363032,-0.070,-0.225
363033,-0.075,-0.255
363034,-0.075,-0.275
363035,-0.065,-0.265
363036,-0.065,-0.285
363037,-0.085,-0.285
363038,-0.085,-0.260
363039,-0.095,-0.290
363040,-0.105,-0.295
363041,-0.100,-0.280
363042,-0.095,-0.260
363043,-0.075,-0.270
363044,-0.080,-0.270
363045,-0.085,-0.260
363046,-0.075,-0.250
363047,-0.075,-0.270
363048,-0.070,-0.270
363049,-0.065,-0.265
363050,-0.075,-0.255
363051,-0.080,-0.250
363052,-0.085,-0.260
363053,-0.085,-0.255
363054,-0.085,-0.245
363055,-0.080,-0.240
363056,-0.065,-0.240
363057,-0.090,-0.205
363058,-0.080,-0.160
363059,-0.090,-0.065
363060,-0.070,0.050
363061,-0.055,0.215
363062,0.025,0.525
363063,0.105,0.805
363064,0.020,1.035
363065,-0.275,1.235
363066,-0.720,1.520
363067,-1.410,1.785
363068,-2.145,1.970
363069,-2.715,2.030
363070,-3.000,1.975
363071,-3.020,1.955
363072,-2.905,1.835
363073,-2.735,1.690
363074,-2.560,1.550
363075,-2.435,1.400
363076,-2.270,1.335
363077,-2.100,1.390
363078,-1.960,1.600
363079,-1.860,1.820
363080,-1.730,1.830
363081,-1.595,1.425
363082,-1.470,0.820
363083,-1.325,0.240
363084,-1.200,-0.160
363085,-1.060,-0.390
363086,-0.895,-0.480
363087,-0.755,-0.480
363088,-0.605,-0.495
363089,-0.410,-0.485
363090,-0.240,-0.470
363091,-0.065,-0.435
363092,0.105,-0.420
363093,0.250,-0.445
363094,0.285,-0.445
363095,0.375,-0.440
363096,0.410,-0.410
363097,0.440,-0.395
363098,0.435,-0.400
363099,0.440,-0.395
363100,0.485,-0.395
363101,0.485,-0.395
363102,0.485,-0.385
363103,0.515,-0.375
363104,0.520,-0.380
363105,0.535,-0.405
363106,0.555,-0.420
363107,0.570,-0.410
363108,0.565,-0.380
363109,0.590,-0.370
363110,0.600,-0.400
363111,0.605,-0.415
363112,0.635,-0.400
363113,0.655,-0.405
363114,0.685,-0.435
363115,0.705,-0.435
363116,0.710,-0.445
363117,0.745,-0.450
363118,0.770,-0.485
363119,0.795,-0.495
363120,0.820,-0.495
363121,0.850,-0.495
363122,0.875,-0.550
363123,0.905,-0.565
363124,0.910,-0.575
363125,0.930,-0.570
363126,0.960,-0.600
363127,0.985,-0.610
363128,1.000,-0.580
363129,1.005,-0.570
363130,1.020,-0.580
363131,1.005,-0.555
363132,0.985,-0.545
363133,0.980,-0.505
363134,0.960,-0.470
363135,0.955,-0.455
363136,0.910,-0.400
363137,0.880,-0.340
363138,0.815,-0.285
363139,0.750,-0.265
363140,0.710,-0.230
363141,0.660,-0.185
363142,0.635,-0.165
363143,0.560,-0.130
363144,0.525,-0.120
363145,0.470,-0.110
363146,0.405,-0.100
363147,0.370,-0.120
363148,0.325,-0.140
363149,0.280,-0.130
363150,0.235,-0.140
363151,0.200,-0.140
363152,0.175,-0.155
363153,0.140,-0.130
363154,0.140,-0.150
363155,0.125,-0.150
363156,0.080,-0.180
363157,0.090,-0.170
363158,0.055,-0.165
363159,0.070,-0.165
363160,0.050,-0.175
363161,0.075,-0.185
363162,0.040,-0.180
363163,0.040,-0.185
363164,0.025,-0.205
363165,0.035,-0.205
363166,0.045,-0.195
363167,0.045,-0.195
363168,0.050,-0.210
363169,0.055,-0.245
363170,0.040,-0.215
363171,0.030,-0.205
363172,0.025,-0.220
363173,0.040,-0.245
363174,0.045,-0.225
363175,0.050,-0.245
363176,0.045,-0.240
363177,0.045,-0.250
363178,0.045,-0.235
363179,0.020,-0.245
363180,0.015,-0.265
363181,0.025,-0.265
363182,0.030,-0.255
363183,0.020,-0.240
363184,0.010,-0.260
363185,0.010,-0.265
363186,0.025,-0.250
363187,0.020,-0.250
363188,0.020,-0.245
363189,0.020,-0.250
363190,-0.005,-0.250
363191,0.010,-0.250
363192,0.020,-0.250
363193,0.015,-0.240
363194,0.000,-0.245
363195,0.000,-0.240
363196,0.000,-0.245
363197,-0.010,-0.235
363198,0.000,-0.235
363199,0.000,-0.220
363200,-0.005,-0.240
363201,0.000,-0.240
363202,0.000,-0.230
363203,-0.005,-0.215
363204,-0.005,-0.220
363205,-0.020,-0.245
363206,-0.025,-0.240
363207,-0.040,-0.215
363208,-0.035,-0.190
363209,-0.040,-0.225
363210,-0.020,-0.225
363211,-0.025,-0.210
363212,-0.040,-0.200
363213,-0.020,-0.210
363214,-0.030,-0.220
363215,-0.010,-0.205
363216,-0.030,-0.200
363217,-0.050,-0.200
363218,-0.010,-0.240
363219,-0.020,-0.210
363220,-0.020,-0.195
363221,-0.040,-0.210
363222,-0.010,-0.200
363223,-0.020,-0.200
363224,-0.040,-0.200
363225,-0.020,-0.200
363226,-0.020,-0.210
363227,-0.040,-0.210
363228,-0.025,-0.195
363229,-0.030,-0.205
363230,-0.045,-0.180
363231,-0.045,-0.160
363232,-0.040,-0.165
363233,-0.040,-0.135
363234,-0.025,-0.110
363235,-0.020,-0.070
363236,-0.025,-0.055
363237,-0.015,-0.050
363238,0.015,-0.010
363239,0.075,0.000
363240,0.085,0.030
363241,0.115,0.045
363242,0.120,0.020
363243,0.145,0.010
363244,0.155,-0.045
363245,0.140,-0.050
363246,0.100,-0.040
363247,0.070,-0.075
363248,0.035,-0.100
363249,0.010,-0.100
363250,0.010,-0.120
363251,-0.015,-0.120
363252,-0.085,-0.170
363253,-0.095,-0.230
363254,-0.095,-0.240
363255,-0.070,-0.255
363256,-0.085,-0.265
363257,-0.080,-0.260
363258,-0.085,-0.255
363259,-0.085,-0.260
363260,-0.075,-0.250
363261,-0.075,-0.250
363262,-0.090,-0.260
363263,-0.100,-0.250
363264,-0.105,-0.275
363265,-0.105,-0.270
363266,-0.080,-0.260
363267,-0.080,-0.270
363268,-0.105,-0.255
363269,-0.105,-0.250
363270,-0.105,-0.270
363271,-0.100,-0.255
363272,-0.080,-0.265
363273,-0.110,-0.260
363274,-0.105,-0.260
363275,-0.100,-0.250
363276,-0.105,-0.255
363277,-0.110,-0.255
363278,-0.120,-0.220
363279,-0.110,-0.170
363280,-0.095,-0.055
363281,-0.090,0.080
363282,-0.035,0.330
363283,0.040,0.640
363284,0.090,0.910
363285,-0.100,1.130
363286,-0.475,1.355
363287,-1.075,1.620
363288,-1.860,1.885
363289,-2.470,2.020
363290,-2.905,2.000
363291,-3.070,1.985
363292,-2.965,1.900
363293,-2.860,1.750
363294,-2.655,1.610
363295,-2.520,1.455
363296,-2.405,1.335
363297,-2.225,1.310
363298,-2.045,1.440
363299,-1.945,1.675
363300,-1.800,1.855
363301,-1.710,1.735
363302,-1.570,1.245
363303,-1.420,0.600
363304,-1.300,0.050
363305,-1.195,-0.265
363306,-1.030,-0.425
363307,-0.880,-0.465
363308,-0.715,-0.500
363309,-0.520,-0.500
363310,-0.330,-0.470
363311,-0.160,-0.450
363312,0.040,-0.445
363313,0.190,-0.445
363314,0.285,-0.455
363315,0.320,-0.430
363316,0.380,-0.430
363317,0.380,-0.410
363318,0.410,-0.400
363319,0.435,-0.400
363320,0.445,-0.400
363321,0.490,-0.380
363322,0.495,-0.370
363323,0.480,-0.395
363324,0.500,-0.410
363325,0.520,-0.385
363326,0.525,-0.380
363327,0.535,-0.385
363328,0.540,-0.375
363329,0.570,-0.385
363330,0.580,-0.380
363331,0.615,-0.395
363332,0.615,-0.420
363333,0.645,-0.400
363334,0.640,-0.405
363335,0.645,-0.430
363336,0.700,-0.455
363337,0.735,-0.445
363338,0.740,-0.470
363339,0.800,-0.515
363340,0.820,-0.525
363341,0.870,-0.525
363342,0.880,-0.555
363343,0.875,-0.555
363344,0.910,-0.595
363345,0.945,-0.585
363346,0.945,-0.595
363347,0.965,-0.605
363348,1.000,-0.620
363349,1.030,-0.610
363350,1.010,-0.605
363351,0.985,-0.565
363352,0.975,-0.565
363353,0.925,-0.490
363354,0.920,-0.460
363355,0.865,-0.400
363356,0.830,-0.375
363357,0.795,-0.320
363358,0.730,-0.295
363359,0.680,-0.250
363360,0.615,-0.235
363361,0.590,-0.190
363362,0.510,-0.170
363363,0.470,-0.160
363364,0.390,-0.165
363365,0.350,-0.160
363366,0.305,-0.160
363367,0.270,-0.170
363368,0.210,-0.170
363369,0.155,-0.190
363370,0.160,-0.190
363371,0.110,-0.175
363372,0.080,-0.200
363373,0.070,-0.210
363374,0.070,-0.205
363375,0.050,-0.205
363376,0.040,-0.215
363377,0.030,-0.215
363378,0.020,-0.210
363379,0.020,-0.215
363380,0.015,-0.220
363381,0.035,-0.195
363382,0.010,-0.200
363383,0.000,-0.215
363384,-0.010,-0.240
363385,0.005,-0.250
363386,0.000,-0.220
363387,0.005,-0.235
363388,0.015,-0.240
363389,0.015,-0.240
363390,-0.010,-0.230
363391,0.000,-0.240
363392,0.000,-0.255
363393,0.025,-0.260
363394,0.000,-0.255
363395,0.030,-0.245
363396,0.010,-0.270
363397,0.005,-0.270
363398,0.005,-0.270
363399,0.010,-0.265
363400,0.035,-0.270
363401,0.030,-0.260
363402,0.005,-0.250
363403,0.010,-0.260
363404,0.005,-0.270
363405,-0.005,-0.275
363406,-0.010,-0.255
363407,0.005,-0.245
363408,0.020,-0.280
363409,0.015,-0.270
363410,0.005,-0.265
363411,0.010,-0.265
363412,0.010,-0.280
363413,0.015,-0.265
363414,-0.020,-0.235
363415,-0.010,-0.250
363416,-0.005,-0.260
363417,0.000,-0.230
363418,-0.010,-0.235
363419,-0.025,-0.215
363420,-0.030,-0.250
363421,-0.040,-0.240
363422,-0.025,-0.225
363423,-0.030,-0.220
363424,-0.045,-0.235
363425,-0.045,-0.230
363426,-0.030,-0.200
363427,-0.050,-0.210
363428,-0.050,-0.230
363429,-0.040,-0.250
363430,-0.035,-0.225
363431,-0.050,-0.245
363432,-0.060,-0.250
363433,-0.065,-0.245
363434,-0.045,-0.220
363435,-0.055,-0.205
363436,-0.025,-0.210
363437,-0.060,-0.215
363438,-0.055,-0.210
363439,-0.070,-0.225
363440,-0.065,-0.225
363441,-0.040,-0.225
363442,-0.070,-0.205
363443,-0.090,-0.190
363444,-0.075,-0.215
363445,-0.090,-0.220
363446,-0.080,-0.200
363447,-0.085,-0.185
363448,-0.065,-0.160
363449,-0.075,-0.100
363450,-0.065,-0.080
363451,-0.065,-0.070
363452,-0.020,-0.045
363453,0.010,-0.010
363454,0.030,0.020
363455,0.060,0.010
363456,0.085,-0.010
363457,0.105,-0.020
363458,0.120,-0.040
363459,0.100,-0.080
363460,0.070,-0.080
363461,0.050,-0.090
363462,0.010,-0.130
363463,-0.005,-0.145
363464,0.000,-0.155
363465,-0.035,-0.160
363466,-0.095,-0.175
363467,-0.105,-0.210
363468,-0.105,-0.250
363469,-0.125,-0.265
363470,-0.115,-0.260
363471,-0.120,-0.270
363472,-0.120,-0.290
363473,-0.120,-0.275
363474,-0.120,-0.250
363475,-0.125,-0.270
363476,-0.140,-0.295
363477,-0.155,-0.275
363478,-0.115,-0.255
363479,-0.100,-0.245
363480,-0.115,-0.245
363481,-0.110,-0.245
363482,-0.110,-0.240
363483,-0.125,-0.255
363484,-0.110,-0.280
363485,-0.105,-0.270
363486,-0.120,-0.255
363487,-0.120,-0.255
363488,-0.135,-0.250
363489,-0.120,-0.245
363490,-0.120,-0.235
363491,-0.120,-0.200
363492,-0.125,-0.140
363493,-0.135,-0.025
363494,-0.130,0.155
363495,-0.070,0.445
363496,0.000,0.815
363497,0.070,1.115
363498,-0.160,1.330
363499,-0.530,1.595
363500,-1.190,1.860
363501,-1.970,2.105
363502,-2.610,2.130
363503,-2.980,2.080
363504,-3.060,1.990
363505,-2.960,1.830
363506,-2.815,1.650
363507,-2.580,1.495
363508,-2.460,1.355
363509,-2.320,1.315
363510,-2.140,1.410
363511,-2.000,1.635
363512,-1.920,1.885
363513,-1.795,1.920
363514,-1.645,1.575
363515,-1.520,0.965
363516,-1.385,0.385
363517,-1.260,-0.005
363518,-1.110,-0.250
363519,-0.960,-0.390
363520,-0.755,-0.490
363521,-0.620,-0.535
363522,-0.420,-0.510
363523,-0.225,-0.480
363524,-0.070,-0.460
363525,0.100,-0.480
363526,0.185,-0.495
363527,0.235,-0.500
363528,0.285,-0.490
363529,0.330,-0.460
363530,0.325,-0.455
363531,0.375,-0.450
363532,0.380,-0.460
363533,0.390,-0.440
363534,0.390,-0.430
363535,0.420,-0.425
363536,0.445,-0.420
363537,0.445,-0.405
363538,0.455,-0.405
363539,0.480,-0.410
363540,0.470,-0.395
363541,0.490,-0.365
363542,0.505,-0.370
363543,0.520,-0.390
363544,0.545,-0.405
363545,0.565,-0.400
363546,0.580,-0.365
363547,0.610,-0.415
363548,0.635,-0.420
363549,0.635,-0.420
363550,0.675,-0.440
363551,0.705,-0.470
363552,0.755,-0.505
363553,0.775,-0.495
363554,0.775,-0.515
363555,0.815,-0.535
363556,0.850,-0.565
363557,0.860,-0.570
363558,0.895,-0.575
363559,0.905,-0.560
363560,0.910,-0.570
363561,0.910,-0.540
363562,0.910,-0.530
363563,0.900,-0.505
363564,0.890,-0.480
363565,0.840,-0.430
363566,0.810,-0.405
363567,0.775,-0.360
363568,0.730,-0.315
363569,0.665,-0.260
363570,0.610,-0.250
363571,0.560,-0.190
363572,0.490,-0.185
363573,0.465,-0.175
363574,0.400,-0.155
363575,0.345,-0.150
363576,0.285,-0.140
363577,0.240,-0.170
363578,0.180,-0.180
363579,0.145,-0.185
363580,0.090,-0.210
363581,0.040,-0.215
363582,0.030,-0.195
363583,0.025,-0.210
363584,-0.010,-0.210
363585,-0.030,-0.230
363586,-0.040,-0.225
363587,-0.060,-0.215
363588,-0.060,-0.215
363589,-0.080,-0.215
363590,-0.075,-0.220
363591,-0.090,-0.240
363592,-0.070,-0.245
363593,-0.095,-0.240
363594,-0.055,-0.250
363595,-0.070,-0.250
363596,-0.080,-0.250
363597,-0.085,-0.275
363598,-0.070,-0.255
363599,-0.055,-0.250
363600,-0.075,-0.270
363601,-0.050,-0.290
363602,-0.070,-0.285
363603,-0.065,-0.280
363604,-0.055,-0.280
363605,-0.055,-0.295
363606,-0.060,-0.295
363607,-0.060,-0.280
363608,-0.060,-0.310
363609,-0.070,-0.315
363610,-0.060,-0.330
363611,-0.060,-0.320
363612,-0.080,-0.330
363613,-0.075,-0.320
363614,-0.060,-0.305
363615,-0.080,-0.320
363616,-0.080,-0.310
363617,-0.080,-0.335
363618,-0.090,-0.310
363619,-0.110,-0.295
363620,-0.100,-0.295
363621,-0.120,-0.315
363622,-0.100,-0.330
363623,-0.105,-0.320
363624,-0.110,-0.320
363625,-0.125,-0.325
363626,-0.080,-0.315
363627,-0.125,-0.295
363628,-0.120,-0.295
363629,-0.110,-0.310
363630,-0.095,-0.290
363631,-0.100,-0.295
363632,-0.120,-0.310
363633,-0.130,-0.295
363634,-0.115,-0.285
363635,-0.120,-0.275
363636,-0.110,-0.265
363637,-0.105,-0.310
363638,-0.095,-0.270
363639,-0.115,-0.250
363640,-0.125,-0.255
363641,-0.110,-0.265
363642,-0.115,-0.275
363643,-0.095,-0.255
363644,-0.100,-0.260
363645,-0.125,-0.265
363646,-0.110,-0.270
363647,-0.120,-0.265
363648,-0.110,-0.240
363649,-0.100,-0.250
363650,-0.120,-0.260
363651,-0.120,-0.250
363652,-0.140,-0.265
363653,-0.145,-0.240
363654,-0.110,-0.250
363655,-0.130,-0.240
363656,-0.120,-0.220
363657,-0.125,-0.210
363658,-0.125,-0.160
363659,-0.115,-0.135
363660,-0.110,-0.125
363661,-0.120,-0.100
363662,-0.050,-0.060
363663,-0.020,-0.030
363664,-0.020,-0.030
363665,0.025,-0.050
363666,0.050,-0.045
363667,0.060,-0.060
363668,0.045,-0.120
363669,0.020,-0.120
363670,-0.030,-0.145
363671,-0.050,-0.160
363672,-0.060,-0.160
363673,-0.070,-0.190
363674,-0.105,-0.190
363675,-0.145,-0.220
363676,-0.180,-0.250
363677,-0.205,-0.285
363678,-0.180,-0.315
363679,-0.170,-0.300
363680,-0.150,-0.315
363681,-0.185,-0.310
363682,-0.155,-0.290
363683,-0.180,-0.285
363684,-0.155,-0.290
363685,-0.180,-0.310
363686,-0.185,-0.315
363687,-0.155,-0.295
363688,-0.180,-0.315
363689,-0.175,-0.305
363690,-0.185,-0.295
363691,-0.210,-0.320
363692,-0.200,-0.300
363693,-0.200,-0.285
363694,-0.170,-0.285
363695,-0.165,-0.285
363696,-0.185,-0.275
363697,-0.170,-0.285
363698,-0.185,-0.275
363699,-0.175,-0.245
363700,-0.185,-0.250
363701,-0.170,-0.190
363702,-0.170,-0.060
363703,-0.160,0.140
363704,-0.095,0.425
363705,-0.005,0.830
363706,0.020,1.160
363707,-0.165,1.410
363708,-0.560,1.680
363709,-1.165,1.935
363710,-1.940,2.180
363711,-2.595,2.285
363712,-3.025,2.200
363713,-3.095,2.110
363714,-3.040,1.965
363715,-2.870,1.785
363716,-2.640,1.640
363717,-2.485,1.515
363718,-2.350,1.470
363719,-2.140,1.580
363720,-2.005,1.805
363721,-1.905,2.035
363722,-1.765,2.085
363723,-1.630,1.770
363724,-1.510,1.190
363725,-1.375,0.570
363726,-1.260,0.090
363727,-1.080,-0.220
363728,-0.935,-0.400
363729,-0.780,-0.505
363730,-0.605,-0.570
363731,-0.415,-0.540
363732,-0.240,-0.545
363733,-0.065,-0.510
363734,0.075,-0.530
363735,0.175,-0.520
363736,0.255,-0.535
363737,0.300,-0.540
363738,0.335,-0.525
363739,0.365,-0.525
363740,0.385,-0.510
363741,0.390,-0.520
363742,0.400,-0.505
363743,0.420,-0.495
363744,0.415,-0.500
363745,0.430,-0.500
363746,0.450,-0.505
363747,0.470,-0.460
363748,0.475,-0.480
363749,0.465,-0.455
363750,0.475,-0.455
363751,0.515,-0.470
363752,0.545,-0.465
363753,0.550,-0.480
363754,0.570,-0.485
363755,0.590,-0.475
363756,0.585,-0.500
363757,0.610,-0.490
363758,0.630,-0.520
363759,0.685,-0.520
363760,0.690,-0.535
363761,0.705,-0.570
363762,0.730,-0.590
363763,0.735,-0.595
363764,0.760,-0.600
363765,0.800,-0.620
363766,0.820,-0.640
363767,0.840,-0.650
363768,0.865,-0.655
363769,0.905,-0.680
363770,0.900,-0.675
363771,0.890,-0.640
363772,0.915,-0.625
363773,0.905,-0.590
363774,0.890,-0.595
363775,0.840,-0.545
363776,0.825,-0.510
363777,0.800,-0.480
363778,0.750,-0.455
363779,0.720,-0.390
363780,0.695,-0.325
363781,0.635,-0.295
363782,0.585,-0.280
363783,0.525,-0.250
363784,0.475,-0.225
363785,0.435,-0.200
363786,0.365,-0.205
363787,0.285,-0.225
363788,0.240,-0.210
363789,0.205,-0.230
363790,0.165,-0.235
363791,0.125,-0.250
363792,0.085,-0.235
363793,0.070,-0.235
363794,0.030,-0.245
363795,0.015,-0.255
363796,-0.015,-0.250
363797,-0.015,-0.265
363798,-0.050,-0.270
363799,-0.045,-0.245
363800,-0.040,-0.250
363801,-0.025,-0.270
363802,-0.055,-0.260
363803,-0.055,-0.275
363804,-0.040,-0.275
363805,-0.045,-0.280
363806,-0.050,-0.270
363807,-0.030,-0.295
363808,-0.040,-0.280
363809,-0.050,-0.295
363810,-0.050,-0.315
363811,-0.050,-0.305
363812,-0.050,-0.295
363813,-0.035,-0.310
363814,-0.030,-0.340
363815,-0.040,-0.340
363816,-0.045,-0.330
363817,-0.045,-0.330
363818,-0.025,-0.335
363819,-0.055,-0.335
363820,-0.040,-0.320
363821,-0.035,-0.320
363822,-0.025,-0.355
363823,-0.035,-0.335
363824,-0.020,-0.325
363825,-0.030,-0.330
363826,-0.020,-0.315
363827,-0.045,-0.345
363828,-0.040,-0.325
363829,-0.055,-0.335
363830,-0.055,-0.345
363831,-0.055,-0.345
363832,-0.040,-0.340
363833,-0.035,-0.350
363834,-0.050,-0.340
363835,-0.060,-0.320
363836,-0.055,-0.320
363837,-0.045,-0.330
363838,-0.070,-0.335
363839,-0.070,-0.340
363840,-0.060,-0.320
363841,-0.080,-0.310
363842,-0.065,-0.310
363843,-0.065,-0.305
363844,-0.070,-0.310
363845,-0.055,-0.305
363846,-0.045,-0.315
363847,-0.075,-0.305
363848,-0.055,-0.300
363849,-0.065,-0.295
363850,-0.060,-0.315
363851,-0.080,-0.310
363852,-0.085,-0.305
363853,-0.080,-0.300
363854,-0.065,-0.290
363855,-0.065,-0.315
363856,-0.070,-0.280
363857,-0.060,-0.295
363858,-0.070,-0.290
363859,-0.090,-0.310
363860,-0.090,-0.295
363861,-0.085,-0.290
363862,-0.085,-0.285
363863,-0.080,-0.290
363864,-0.090,-0.285
363865,-0.090,-0.250
363866,-0.085,-0.205
363867,-0.060,-0.170
363868,-0.090,-0.155
363869,-0.030,-0.140
363870,-0.005,-0.095
363871,0.035,-0.090
363872,0.025,-0.070
363873,0.065,-0.050
363874,0.110,-0.045
363875,0.115,-0.065
363876,0.125,-0.120
363877,0.115,-0.145
363878,0.085,-0.130
363879,0.040,-0.150
363880,0.010,-0.195
363881,-0.005,-0.210
363882,-0.005,-0.200
363883,-0.015,-0.225
363884,-0.060,-0.260
363885,-0.100,-0.300
363886,-0.100,-0.320
363887,-0.100,-0.345
363888,-0.080,-0.345
363889,-0.110,-0.345
363890,-0.100,-0.330
363891,-0.110,-0.340
363892,-0.105,-0.350
363893,-0.105,-0.320
363894,-0.100,-0.335
363895,-0.110,-0.320
363896,-0.110,-0.320
363897,-0.115,-0.330
363898,-0.105,-0.330
363899,-0.115,-0.315
363900,-0.110,-0.325
363901,-0.090,-0.330
363902,-0.120,-0.325
363903,-0.100,-0.320
363904,-0.095,-0.345
363905,-0.115,-0.320
363906,-0.100,-0.305
363907,-0.080,-0.305
363908,-0.095,-0.295
363909,-0.095,-0.290
363910,-0.095,-0.270
363911,-0.100,-0.230
363912,-0.100,-0.125
363913,-0.105,0.010
363914,-0.090,0.240
363915,-0.005,0.565
363916,0.050,0.885
363917,-0.035,1.085
363918,-0.370,1.300
363919,-0.890,1.595
363920,-1.640,1.855
363921,-2.320,1.985
363922,-2.785,2.000
363923,-2.980,1.970
363924,-2.965,1.920
363925,-2.855,1.760
363926,-2.680,1.630
363927,-2.520,1.475
363928,-2.400,1.355
363929,-2.255,1.335
363930,-2.090,1.460
363931,-1.920,1.720
363932,-1.830,1.905
363933,-1.675,1.820
363934,-1.560,1.340
363935,-1.440,0.695
363936,-1.320,0.140
363937,-1.190,-0.230
363938,-1.060,-0.435
363939,-0.905,-0.480
363940,-0.750,-0.510
363941,-0.565,-0.540
363942,-0.380,-0.525
363943,-0.185,-0.495
363944,0.005,-0.495
363945,0.135,-0.495
363946,0.240,-0.500
363947,0.315,-0.485
363948,0.355,-0.470
363949,0.380,-0.475
363950,0.420,-0.475
363951,0.415,-0.455
363952,0.450,-0.445
363953,0.475,-0.465
363954,0.485,-0.460
363955,0.495,-0.465
363956,0.515,-0.470
363957,0.510,-0.490
363958,0.540,-0.480
363959,0.555,-0.455
363960,0.555,-0.470
363961,0.580,-0.475
363962,0.600,-0.485
363963,0.625,-0.480
363964,0.635,-0.480
363965,0.640,-0.495
363966,0.670,-0.490
363967,0.700,-0.485
363968,0.720,-0.525
363969,0.740,-0.535
363970,0.785,-0.565
363971,0.790,-0.575
363972,0.815,-0.595
363973,0.835,-0.610
363974,0.845,-0.630
363975,0.875,-0.640
363976,0.905,-0.640
363977,0.935,-0.680
363978,0.960,-0.690
363979,0.980,-0.720
363980,1.000,-0.715
363981,1.020,-0.735
363982,1.015,-0.705
363983,1.020,-0.650
363984,1.005,-0.625
363985,1.000,-0.615
363986,0.955,-0.560
363987,0.940,-0.495
363988,0.885,-0.465
363989,0.835,-0.420
363990,0.815,-0.395
363991,0.765,-0.345
363992,0.685,-0.300
363993,0.645,-0.280
363994,0.600,-0.250
363995,0.550,-0.220
363996,0.490,-0.195
363997,0.430,-0.200
363998,0.395,-0.215
363999,0.340,-0.210
364000,0.295,-0.200
364001,0.255,-0.240
364002,0.205,-0.240
364003,0.190,-0.255
364004,0.140,-0.260
364005,0.115,-0.280
364006,0.095,-0.285
364007,0.085,-0.295
364008,0.090,-0.290
364009,0.055,-0.275
364010,0.025,-0.295
364011,0.040,-0.290
364012,0.040,-0.290
364013,0.055,-0.310
364014,0.035,-0.305
364015,0.025,-0.305
364016,0.020,-0.300
364017,0.025,-0.300
364018,0.005,-0.315
364019,0.000,-0.315
364020,0.020,-0.335
364021,0.000,-0.335
364022,0.015,-0.335
364023,0.030,-0.350
364024,0.010,-0.350
364025,0.030,-0.345
364026,0.030,-0.350
364027,0.005,-0.355
364028,0.020,-0.365
364029,0.010,-0.375
364030,0.015,-0.385
364031,0.015,-0.375
364032,0.015,-0.385
364033,0.015,-0.360
364034,0.025,-0.380
364035,0.010,-0.385
364036,0.030,-0.405
364037,0.025,-0.375
364038,0.035,-0.380
364039,0.025,-0.385
364040,0.020,-0.380
364041,0.020,-0.380
364042,0.030,-0.380
364043,0.005,-0.345
364044,0.000,-0.350
364045,0.005,-0.345
364046,0.005,-0.340
364047,0.015,-0.345
364048,0.000,-0.345
364049,0.010,-0.340
364050,-0.010,-0.355
364051,0.000,-0.325
364052,-0.005,-0.335
364053,0.000,-0.340
364054,-0.010,-0.320
364055,-0.020,-0.340
364056,-0.015,-0.335
364057,-0.025,-0.315
364058,-0.010,-0.315
364059,0.000,-0.330
364060,-0.015,-0.320
364061,-0.040,-0.305
364062,-0.030,-0.320
364063,-0.035,-0.310
364064,-0.015,-0.320
364065,0.000,-0.300
364066,0.000,-0.310
364067,-0.025,-0.330
364068,-0.030,-0.315
364069,-0.035,-0.315
364070,-0.015,-0.305
364071,-0.020,-0.310
364072,-0.020,-0.325
364073,-0.020,-0.330
364074,-0.005,-0.305
364075,-0.010,-0.320
364076,-0.025,-0.290
364077,-0.010,-0.250
364078,-0.015,-0.240
364079,-0.020,-0.205
364080,-0.005,-0.170
364081,0.040,-0.150
364082,0.085,-0.115
364083,0.080,-0.095
364084,0.110,-0.100
364085,0.135,-0.090
364086,0.165,-0.110
364087,0.190,-0.130
364088,0.185,-0.165
364089,0.150,-0.160
364090,0.135,-0.140
364091,0.090,-0.200
364092,0.065,-0.255
364093,0.060,-0.255
364094,0.045,-0.245
364095,0.005,-0.285
364096,-0.045,-0.325
364097,-0.045,-0.380
364098,-0.045,-0.405
364099,-0.025,-0.405
364100,-0.030,-0.400
364101,-0.065,-0.395
364102,-0.055,-0.400
364103,-0.050,-0.385
364104,-0.055,-0.375
364105,-0.075,-0.390
364106,-0.075,-0.390
364107,-0.075,-0.385
364108,-0.080,-0.370
364109,-0.075,-0.380
364110,-0.075,-0.390
364111,-0.085,-0.395
364112,-0.070,-0.385
364113,-0.065,-0.370
364114,-0.070,-0.390
364115,-0.065,-0.370
364116,-0.040,-0.370
364117,-0.075,-0.360
364118,-0.070,-0.360
364119,-0.060,-0.375
364120,-0.050,-0.355
364121,-0.060,-0.330
364122,-0.050,-0.320
364123,-0.045,-0.245
364124,-0.050,-0.130
364125,-0.040,0.045
364126,0.015,0.290
364127,0.090,0.620
364128,0.105,0.895
364129,-0.100,1.080
364130,-0.495,1.330
364131,-1.075,1.610
364132,-1.810,1.865
364133,-2.425,1.990
364134,-2.820,1.985
364135,-2.980,1.970
364136,-2.920,1.930
364137,-2.795,1.805
364138,-2.615,1.675
364139,-2.460,1.570
364140,-2.350,1.460
364141,-2.220,1.360
364142,-2.005,1.420
364143,-1.875,1.580
364144,-1.795,1.830
364145,-1.655,1.910
364146,-1.540,1.630
364147,-1.425,1.055
364148,-1.275,0.395
364149,-1.180,-0.060
364150,-1.020,-0.335
364151,-0.890,-0.475
364152,-0.715,-0.545
364153,-0.545,-0.575
364154,-0.395,-0.560
364155,-0.190,-0.570
364156,-0.015,-0.555
364157,0.150,-0.525
364158,0.295,-0.545
364159,0.375,-0.570
364160,0.420,-0.555
364161,0.465,-0.525
364162,0.510,-0.535
364163,0.505,-0.535
364164,0.525,-0.555
364165,0.535,-0.525
364166,0.555,-0.495
364167,0.560,-0.515
364168,0.585,-0.520
364169,0.590,-0.510
364170,0.635,-0.500
364171,0.620,-0.490
364172,0.630,-0.485
364173,0.625,-0.515
364174,0.650,-0.500
364175,0.675,-0.490
364176,0.685,-0.500
364177,0.690,-0.525
364178,0.745,-0.515
364179,0.760,-0.525
364180,0.785,-0.545
364181,0.820,-0.560
364182,0.840,-0.565
364183,0.880,-0.570
364184,0.885,-0.620
364185,0.910,-0.630
364186,0.940,-0.635
364187,0.960,-0.640
364188,0.990,-0.670
364189,1.025,-0.710
364190,1.050,-0.715
364191,1.075,-0.710
364192,1.090,-0.720
364193,1.095,-0.745
364194,1.105,-0.725
364195,1.095,-0.720
364196,1.110,-0.705
364197,1.105,-0.670
364198,1.085,-0.630
364199,1.065,-0.595
364200,1.030,-0.540
364201,0.985,-0.530
364202,0.940,-0.465
364203,0.895,-0.440
364204,0.870,-0.410
364205,0.800,-0.375
364206,0.745,-0.320
364207,0.680,-0.280
364208,0.635,-0.275
364209,0.560,-0.280
364210,0.515,-0.275
364211,0.465,-0.260
364212,0.410,-0.270
364213,0.375,-0.275
364214,0.335,-0.270
364215,0.295,-0.265
364216,0.255,-0.280
364217,0.240,-0.285
364218,0.220,-0.300
364219,0.190,-0.285
364220,0.175,-0.285
364221,0.170,-0.310
364222,0.145,-0.320
364223,0.135,-0.315
364224,0.145,-0.305
364225,0.135,-0.320
364226,0.130,-0.315
364227,0.140,-0.310
364228,0.120,-0.320
364229,0.125,-0.320
364230,0.125,-0.340
364231,0.130,-0.325
364232,0.125,-0.340
364233,0.125,-0.350
364234,0.135,-0.360
364235,0.135,-0.360
364236,0.115,-0.345
364237,0.105,-0.380
364238,0.105,-0.375
364239,0.125,-0.385
364240,0.135,-0.355
364241,0.125,-0.365
364242,0.125,-0.360
364243,0.120,-0.370
364244,0.125,-0.345
364245,0.140,-0.380
364246,0.145,-0.380
364247,0.130,-0.395
364248,0.145,-0.375
364249,0.140,-0.390
364250,0.140,-0.375
364251,0.135,-0.400
364252,0.125,-0.380
364253,0.140,-0.385
364254,0.135,-0.395
364255,0.150,-0.395
364256,0.115,-0.380
364257,0.135,-0.380
364258,0.115,-0.400
364259,0.120,-0.380
364260,0.115,-0.360
364261,0.130,-0.375
364262,0.115,-0.365
364263,0.115,-0.380
364264,0.090,-0.370
364265,0.095,-0.370
364266,0.110,-0.365
364267,0.100,-0.380
364268,0.095,-0.360
364269,0.115,-0.350
364270,0.095,-0.360
364271,0.110,-0.370
364272,0.100,-0.370
364273,0.090,-0.360
364274,0.095,-0.375
364275,0.110,-0.375
364276,0.105,-0.370
364277,0.090,-0.365
364278,0.100,-0.360
364279,0.085,-0.340
364280,0.105,-0.350
364281,0.100,-0.360
364282,0.100,-0.350
364283,0.090,-0.360
364284,0.090,-0.350
364285,0.080,-0.325
364286,0.095,-0.310
364287,0.085,-0.325
364288,0.090,-0.280
364289,0.070,-0.240
364290,0.080,-0.230
364291,0.120,-0.220
364292,0.140,-0.175
364293,0.170,-0.170
364294,0.205,-0.130
364295,0.220,-0.135
364296,0.250,-0.125
364297,0.280,-0.145
364298,0.290,-0.185
364299,0.285,-0.240
364300,0.275,-0.225
364301,0.225,-0.220
364302,0.185,-0.240
364303,0.175,-0.245
364304,0.165,-0.255
364305,0.155,-0.275
364306,0.115,-0.315
364307,0.100,-0.360
364308,0.075,-0.400
364309,0.065,-0.410
364310,0.075,-0.405
364311,0.080,-0.405
364312,0.065,-0.435
364313,0.060,-0.430
364314,0.055,-0.400
364315,0.055,-0.425
364316,0.065,-0.405
364317,0.050,-0.400
364318,0.060,-0.415
364319,0.055,-0.425
364320,0.070,-0.420
364321,0.050,-0.420
364322,0.085,-0.415
364323,0.075,-0.425
364324,0.060,-0.405
364325,0.050,-0.405
364326,0.040,-0.410
364327,0.055,-0.420
364328,0.065,-0.410
364329,0.060,-0.400
364330,0.050,-0.390
364331,0.055,-0.390
364332,0.070,-0.380
364333,0.055,-0.345
364334,0.055,-0.265
364335,0.080,-0.130
364336,0.080,0.050
364337,0.155,0.340
364338,0.235,0.670
364339,0.170,0.890
364340,-0.135,1.140
364341,-0.615,1.420
364342,-1.355,1.705
364343,-2.060,1.850
364344,-2.560,1.860
364345,-2.785,1.805
364346,-2.785,1.775
364347,-2.675,1.655
364348,-2.520,1.505
364349,-2.340,1.390
364350,-2.245,1.265
364351,-2.080,1.215
364352,-1.890,1.260
364353,-1.770,1.465
364354,-1.665,1.710
364355,-1.530,1.735
364356,-1.395,1.385
364357,-1.250,0.785
364358,-1.155,0.210
364359,-1.040,-0.190
364360,-0.905,-0.410
364361,-0.740,-0.545
364362,-0.605,-0.590
364363,-0.400,-0.590
364364,-0.245,-0.595
364365,-0.085,-0.590
364366,0.090,-0.585
364367,0.305,-0.580
364368,0.420,-0.595
364369,0.505,-0.580
364370,0.570,-0.570
364371,0.595,-0.575
364372,0.615,-0.575
364373,0.635,-0.560
364374,0.670,-0.565
364375,0.700,-0.560
364376,0.700,-0.560
364377,0.725,-0.535
364378,0.740,-0.560
364379,0.725,-0.535
364380,0.735,-0.520
364381,0.775,-0.520
364382,0.775,-0.520
364383,0.785,-0.520
364384,0.800,-0.510
364385,0.825,-0.525
364386,0.835,-0.520
364387,0.860,-0.520
364388,0.880,-0.520
364389,0.875,-0.545
364390,0.915,-0.570
364391,0.955,-0.560
364392,0.990,-0.575
364393,0.995,-0.580
364394,1.040,-0.600
364395,1.030,-0.600
364396,1.070,-0.620
364397,1.120,-0.605
364398,1.165,-0.620
364399,1.185,-0.650
364400,1.205,-0.655
364401,1.235,-0.675
364402,1.275,-0.710
364403,1.265,-0.705
364404,1.280,-0.665
364405,1.255,-0.655
364406,1.265,-0.630
364407,1.260,-0.595
364408,1.220,-0.570
364409,1.195,-0.545
364410,1.160,-0.485
364411,1.125,-0.455
364412,1.065,-0.420
364413,1.020,-0.360
364414,0.965,-0.335
364415,0.930,-0.305
364416,0.855,-0.285
364417,0.805,-0.275
364418,0.740,-0.260
364419,0.710,-0.255
364420,0.630,-0.255
364421,0.575,-0.265
364422,0.510,-0.275
364423,0.495,-0.265
364424,0.465,-0.280
364425,0.440,-0.280
364426,0.400,-0.300
364427,0.375,-0.285
364428,0.335,-0.265
364429,0.315,-0.275
364430,0.325,-0.315
364431,0.315,-0.300
364432,0.295,-0.305
364433,0.285,-0.320
364434,0.290,-0.340
364435,0.295,-0.315
364436,0.300,-0.325
364437,0.285,-0.345
364438,0.285,-0.350
364439,0.280,-0.340
364440,0.285,-0.350
364441,0.295,-0.340
364442,0.290,-0.365
364443,0.305,-0.365
364444,0.300,-0.355
364445,0.290,-0.360
364446,0.295,-0.365
364447,0.300,-0.355
364448,0.305,-0.375
364449,0.300,-0.365
364450,0.305,-0.365
364451,0.295,-0.365
364452,0.290,-0.375
364453,0.315,-0.370
364454,0.335,-0.380
364455,0.315,-0.375
364456,0.320,-0.375
364457,0.320,-0.375
364458,0.305,-0.390
364459,0.320,-0.370
364460,0.315,-0.380
364461,0.325,-0.385
364462,0.340,-0.355
364463,0.325,-0.355
364464,0.315,-0.365
364465,0.305,-0.340
364466,0.300,-0.355
364467,0.300,-0.360
364468,0.315,-0.370
364469,0.310,-0.370
364470,0.310,-0.385
364471,0.310,-0.350
364472,0.315,-0.330
364473,0.300,-0.330
364474,0.280,-0.310
364475,0.295,-0.365
364476,0.275,-0.375
364477,0.290,-0.360
364478,0.275,-0.335
364479,0.270,-0.340
364480,0.285,-0.345
364481,0.300,-0.380
364482,0.300,-0.380
364483,0.275,-0.355
364484,0.280,-0.345
364485,0.290,-0.345
364486,0.275,-0.355
364487,0.255,-0.330
364488,0.285,-0.315
364489,0.260,-0.295
364490,0.270,-0.295
364491,0.290,-0.265
364492,0.290,-0.245
364493,0.280,-0.235
364494,0.295,-0.215
364495,0.345,-0.175
364496,0.360,-0.125
364497,0.380,-0.095
364498,0.415,-0.080
364499,0.450,-0.080
364500,0.475,-0.120
364501,0.485,-0.175
364502,0.475,-0.200
364503,0.465,-0.195
364504,0.440,-0.195
364505,0.390,-0.205
364506,0.340,-0.210
364507,0.375,-0.230
364508,0.360,-0.285
364509,0.305,-0.320
364510,0.265,-0.340
364511,0.275,-0.350
364512,0.290,-0.345
364513,0.290,-0.355
364514,0.285,-0.365
364515,0.290,-0.360
364516,0.290,-0.400
364517,0.295,-0.475
364518,0.280,-0.455
364519,0.250,-0.420
364520,0.250,-0.385
364521,0.285,-0.425
364522,0.280,-0.435
364523,0.280,-0.410
364524,0.315,-0.430
364525,0.275,-0.430
364526,0.255,-0.425
364527,0.255,-0.390
364528,0.250,-0.390
364529,0.240,-0.400
364530,0.245,-0.435
364531,0.255,-0.405
364532,0.250,-0.435
364533,0.255,-0.410
364534,0.245,-0.405
364535,0.235,-0.340
364536,0.250,-0.265
364537,0.235,-0.150
364538,0.250,0.015
364539,0.325,0.335
364540,0.420,0.575
364541,0.370,0.785
364542,0.095,0.990
364543,-0.360,1.235
364544,-1.090,1.505
364545,-1.825,1.635
364546,-2.340,1.640
364547,-2.610,1.600
364548,-2.575,1.515
364549,-2.470,1.370
364550,-2.295,1.240
364551,-2.135,1.100
364552,-2.050,0.960
364553,-1.870,0.910
364554,-1.670,1.040
364555,-1.535,1.230
364556,-1.450,1.280
364557,-1.265,1.025
364558,-1.150,0.495
364559,-1.010,-0.095
364560,-0.885,-0.490
364561,-0.760,-0.655
364562,-0.640,-0.695
364563,-0.480,-0.675
364564,-0.275,-0.665
364565,-0.075,-0.665
364566,0.100,-0.640
364567,0.280,-0.600
364568,0.475,-0.610
364569,0.620,-0.600
364570,0.660,-0.615
364571,0.725,-0.590
364572,0.755,-0.570
364573,0.785,-0.555
364574,0.780,-0.520
364575,0.805,-0.540
364576,0.855,-0.560
364577,0.860,-0.600
364578,0.870,-0.550
364579,0.890,-0.555
364580,0.895,-0.565
364581,0.905,-0.560
364582,0.925,-0.545
364583,0.915,-0.560
364584,0.925,-0.560
364585,0.960,-0.560
364586,0.970,-0.565
364587,1.005,-0.555
364588,1.030,-0.575
364589,1.050,-0.570
364590,1.055,-0.575
364591,1.085,-0.580
364592,1.105,-0.610
364593,1.135,-0.615
364594,1.165,-0.640
364595,1.210,-0.675
364596,1.230,-0.700
364597,1.215,-0.705
364598,1.260,-0.700
364599,1.295,-0.715
364600,1.355,-0.735
364601,1.350,-0.740
364602,1.395,-0.725
364603,1.400,-0.715
364604,1.430,-0.720
364605,1.420,-0.715
364606,1.400,-0.660
364607,1.380,-0.640
364608,1.365,-0.590
364609,1.305,-0.565
364610,1.300,-0.500
364611,1.240,-0.455
364612,1.205,-0.445
364613,1.155,-0.430
364614,1.095,-0.395
364615,1.035,-0.370
364616,0.990,-0.340
364617,0.955,-0.325
364618,0.880,-0.320
364619,0.815,-0.300
364620,0.775,-0.295
364621,0.750,-0.310
364622,0.695,-0.340
364623,0.675,-0.355
364624,0.640,-0.375
364625,0.640,-0.395
364626,0.625,-0.355
364627,0.570,-0.360
364628,0.515,-0.390
364629,0.510,-0.395
364630,0.525,-0.380
364631,0.535,-0.360
364632,0.515,-0.370
364633,0.510,-0.380
364634,0.525,-0.390
364635,0.550,-0.390
364636,0.545,-0.420
364637,0.525,-0.415
364638,0.525,-0.410
364639,0.550,-0.390
364640,0.535,-0.410
364641,0.540,-0.415
364642,0.555,-0.410
364643,0.555,-0.405
364644,0.600,-0.420
364645,0.575,-0.420
364646,0.570,-0.380
364647,0.570,-0.420
364648,0.520,-0.420
364649,0.550,-0.410
364650,0.560,-0.390
364651,0.540,-0.405
364652,0.535,-0.435
364653,0.555,-0.475
364654,0.560,-0.475
364655,0.555,-0.430
364656,0.550,-0.450
364657,0.550,-0.450
364658,0.540,-0.420
364659,0.555,-0.400
364660,0.570,-0.425
364661,0.550,-0.405
364662,0.560,-0.420
364663,0.570,-0.395
364664,0.540,-0.370
364665,0.555,-0.355
364666,0.555,-0.400
364667,0.555,-0.420
364668,0.515,-0.395
364669,0.540,-0.370
364670,0.540,-0.370
364671,0.530,-0.355
364672,0.555,-0.365
364673,0.560,-0.350
364674,0.540,-0.365
364675,0.545,-0.390
364676,0.555,-0.380
364677,0.550,-0.395
364678,0.545,-0.370
364679,0.520,-0.375
364680,0.530,-0.385
364681,0.510,-0.380
364682,0.525,-0.350
364683,0.530,-0.350
364684,0.530,-0.355
364685,0.535,-0.335
364686,0.505,-0.355
364687,0.520,-0.340
364688,0.510,-0.320
364689,0.490,-0.270
364690,0.480,-0.235
364691,0.490,-0.200
364692,0.505,-0.200
364693,0.570,-0.185
364694,0.605,-0.165
364695,0.640,-0.125
364696,0.635,-0.100
364697,0.685,-0.100
364698,0.680,-0.135
364699,0.680,-0.185
364700,0.690,-0.200
364701,0.670,-0.175
364702,0.605,-0.190
364703,0.555,-0.220
364704,0.535,-0.260
364705,0.545,-0.270
364706,0.500,-0.305
364707,0.455,-0.360
364708,0.445,-0.385
364709,0.415,-0.390
364710,0.445,-0.385
364711,0.435,-0.360
364712,0.420,-0.370
364713,0.435,-0.415
364714,0.420,-0.425
364715,0.430,-0.375
364716,0.435,-0.360
364717,0.420,-0.400
364718,0.455,-0.375
364719,0.425,-0.360
364720,0.415,-0.370
364721,0.435,-0.375
364722,0.430,-0.375
364723,0.440,-0.340
364724,0.430,-0.335
364725,0.435,-0.375
364726,0.455,-0.375
364727,0.445,-0.370
364728,0.445,-0.385
364729,0.430,-0.345
364730,0.435,-0.335
364731,0.435,-0.300
364732,0.440,-0.265
364733,0.440,-0.150
364734,0.455,-0.015
364735,0.490,0.235
364736,0.555,0.530
364737,0.625,0.805
364738,0.485,0.965
364739,0.105,1.155
364740,-0.535,1.415
364741,-1.290,1.610
364742,-1.940,1.685
364743,-2.360,1.660
364744,-2.480,1.595
364745,-2.370,1.475
364746,-2.235,1.340
364747,-2.025,1.245
364748,-1.905,1.160
364749,-1.805,1.045
364750,-1.600,0.995
364751,-1.460,1.105
364752,-1.360,1.245
364753,-1.225,1.305
364754,-1.085,1.020
364755,-0.945,0.460
364756,-0.825,-0.110
364757,-0.700,-0.445
364758,-0.555,-0.555
364759,-0.400,-0.565
364760,-0.235,-0.570
364761,-0.045,-0.565
364762,0.150,-0.530
364763,0.360,-0.505
364764,0.575,-0.475
364765,0.740,-0.450
364766,0.840,-0.465
364767,0.885,-0.460
364768,0.960,-0.490
364769,0.980,-0.525
364770,1.015,-0.465
364771,1.030,-0.425
364772,1.050,-0.420
364773,1.070,-0.420
364774,1.080,-0.440
364775,1.075,-0.430
364776,1.075,-0.425
364777,1.095,-0.435
364778,1.110,-0.440
364779,1.115,-0.420
364780,1.105,-0.420
364781,1.155,-0.440
364782,1.145,-0.440
364783,1.180,-0.460
364784,1.185,-0.445
364785,1.205,-0.435
364786,1.245,-0.450
364787,1.280,-0.475
364788,1.310,-0.485
364789,1.320,-0.500
364790,1.385,-0.520
364791,1.370,-0.525
364792,1.405,-0.535
364793,1.455,-0.550
364794,1.475,-0.545
364795,1.500,-0.585
364796,1.530,-0.620
364797,1.565,-0.605
364798,1.585,-0.600
364799,1.590,-0.590
364800,1.600,-0.590
364801,1.585,-0.585
364802,1.610,-0.550
364803,1.595,-0.535
364804,1.565,-0.520
364805,1.545,-0.455
364806,1.560,-0.400
364807,1.540,-0.370
364808,1.495,-0.320
364809,1.480,-0.295
364810,1.435,-0.240
364811,1.375,-0.240
364812,1.305,-0.230
364813,1.265,-0.215
364814,1.220,-0.195
364815,1.150,-0.205
364816,1.120,-0.215
364817,1.085,-0.200
364818,1.035,-0.215
364819,1.015,-0.240
364820,0.990,-0.250
364821,0.940,-0.255
364822,0.930,-0.255
364823,0.885,-0.255
364824,0.895,-0.265
364825,0.935,-0.245
364826,0.980,-0.255
364827,0.985,-0.270
364828,0.980,-0.280
364829,0.970,-0.295
364830,0.970,-0.295
364831,0.960,-0.300
364832,0.945,-0.315
364833,0.965,-0.300
364834,0.970,-0.310
364835,0.975,-0.330
364836,0.970,-0.310
364837,0.965,-0.300
364838,0.990,-0.310
364839,1.020,-0.315
364840,0.995,-0.305
364841,0.930,-0.310
364842,0.895,-0.340
364843,0.915,-0.370
364844,0.920,-0.355
364845,0.920,-0.335
364846,0.940,-0.340
364847,0.945,-0.340
364848,0.915,-0.345
364849,0.915,-0.335
364850,0.910,-0.335
364851,0.905,-0.330
364852,0.900,-0.335
364853,0.905,-0.345
364854,0.890,-0.370
364855,0.885,-0.350
364856,0.875,-0.340
364857,0.870,-0.335
364858,0.870,-0.335
364859,0.840,-0.320
364860,0.840,-0.325
364861,0.830,-0.350
364862,0.830,-0.370
364863,0.815,-0.350
364864,0.810,-0.305
364865,0.790,-0.295
364866,0.780,-0.315
364867,0.815,-0.320
364868,0.785,-0.300
364869,0.780,-0.280
364870,0.820,-0.325
364871,0.840,-0.325
364872,0.840,-0.325
364873,0.860,-0.290
364874,0.850,-0.295
364875,0.845,-0.305
364876,0.855,-0.305
364877,0.835,-0.290
364878,0.835,-0.290
364879,0.810,-0.315
364880,0.785,-0.300
364881,0.790,-0.285
364882,0.790,-0.300
364883,0.780,-0.315
364884,0.765,-0.290
364885,0.745,-0.265
364886,0.735,-0.220
364887,0.735,-0.190
364888,0.745,-0.160
364889,0.760,-0.145
364890,0.755,-0.125
364891,0.760,-0.090
364892,0.755,-0.075
364893,0.775,-0.040
364894,0.825,-0.055
364895,0.830,-0.095
364896,0.850,-0.105
364897,0.885,-0.135
364898,0.840,-0.120
364899,0.810,-0.130
364900,0.745,-0.150
364901,0.715,-0.185
364902,0.700,-0.160
364903,0.655,-0.185
364904,0.630,-0.205
364905,0.580,-0.250
364906,0.575,-0.310
364907,0.570,-0.335
364908,0.540,-0.315
364909,0.540,-0.285
364910,0.525,-0.300
364911,0.530,-0.315
364912,0.520,-0.320
364913,0.520,-0.300
364914,0.510,-0.310
364915,0.495,-0.320
364916,0.505,-0.320
364917,0.495,-0.295
364918,0.495,-0.290
364919,0.500,-0.300
364920,0.520,-0.295
364921,0.505,-0.275
364922,0.515,-0.295
364923,0.515,-0.300
364924,0.485,-0.285
364925,0.475,-0.285
364926,0.490,-0.275
364927,0.505,-0.290
364928,0.515,-0.315
364929,0.515,-0.280
364930,0.530,-0.205
364931,0.530,-0.200
364932,0.510,-0.090
364933,0.490,0.055
364934,0.555,0.245
364935,0.625,0.530
364936,0.695,0.795
364937,0.625,0.985
364938,0.355,1.135
364939,-0.050,1.345
364940,-0.705,1.580
364941,-1.430,1.760
364942,-2.045,1.790
364943,-2.415,1.735
364944,-2.485,1.630
364945,-2.405,1.485
364946,-2.250,1.340
364947,-2.080,1.210
364948,-1.980,1.100
364949,-1.850,1.070
364950,-1.655,1.185
364951,-1.525,1.395
364952,-1.410,1.545
364953,-1.260,1.445
364954,-1.075,1.030
364955,-0.910,0.395
364956,-0.780,-0.085
364957,-0.630,-0.350
364958,-0.465,-0.475
364959,-0.285,-0.505
364960,-0.100,-0.505
364961,0.090,-0.555
364962,0.300,-0.525
364963,0.490,-0.485
364964,0.675,-0.455
364965,0.855,-0.465
364966,0.945,-0.475
364967,1.025,-0.445
364968,1.055,-0.440
364969,1.105,-0.450
364970,1.090,-0.455
364971,1.150,-0.455
364972,1.165,-0.450
364973,1.175,-0.455
364974,1.165,-0.440
364975,1.165,-0.445
364976,1.195,-0.420
364977,1.200,-0.425
364978,1.190,-0.425
364979,1.220,-0.395
364980,1.215,-0.405
364981,1.235,-0.410
364982,1.245,-0.420
364983,1.275,-0.425
364984,1.260,-0.440
364985,1.275,-0.430
364986,1.275,-0.455
364987,1.310,-0.460
364988,1.330,-0.480
364989,1.330,-0.490
364990,1.335,-0.480
364991,1.355,-0.515
364992,1.375,-0.515
364993,1.410,-0.525
364994,1.445,-0.550
364995,1.465,-0.580
364996,1.500,-0.610
364997,1.550,-0.635
364998,1.580,-0.625
364999,1.580,-0.640
365000,1.570,-0.610
365001,1.565,-0.600
365002,1.565,-0.590
365003,1.560,-0.605
365004,1.560,-0.595
365005,1.565,-0.580
365006,1.530,-0.540
365007,1.505,-0.495
365008,1.485,-0.445
365009,1.445,-0.405
365010,1.390,-0.375
365011,1.345,-0.315
365012,1.305,-0.275
365013,1.260,-0.240
365014,1.180,-0.235
365015,1.125,-0.220
365016,1.060,-0.195
365017,1.000,-0.170
365018,0.950,-0.190
365019,0.900,-0.185
365020,0.800,-0.195
365021,0.735,-0.205
365022,0.680,-0.205
365023,0.625,-0.215
365024,0.570,-0.210
365025,0.535,-0.230
365026,0.485,-0.245
365027,0.470,-0.255
365028,0.430,-0.275
365029,0.410,-0.240
365030,0.380,-0.250
365031,0.370,-0.270
365032,0.345,-0.265
365033,0.315,-0.275
365034,0.305,-0.285
365035,0.295,-0.270
365036,0.265,-0.240
365037,0.225,-0.270
365038,0.200,-0.310
365039,0.190,-0.315
365040,0.210,-0.310
365041,0.185,-0.295
365042,0.185,-0.295
365043,0.195,-0.320
365044,0.175,-0.355
365045,0.175,-0.360
365046,0.190,-0.335
365047,0.160,-0.320
365048,0.120,-0.330
365049,0.120,-0.335
365050,0.140,-0.330
365051,0.130,-0.335
365052,0.125,-0.345
365053,0.115,-0.335
365054,0.115,-0.340
365055,0.095,-0.385
365056,0.095,-0.375
365057,0.065,-0.345
365058,0.080,-0.360
365059,0.060,-0.345
365060,0.040,-0.340
365061,0.045,-0.360
365062,0.025,-0.355
365063,0.000,-0.340
365064,0.000,-0.320
365065,-0.015,-0.310
365066,-0.020,-0.315
365067,-0.040,-0.365
365068,-0.040,-0.355
365069,-0.050,-0.345
365070,-0.060,-0.340
365071,-0.100,-0.345
365072,-0.105,-0.345
365073,-0.100,-0.345
365074,-0.120,-0.330
365075,-0.095,-0.320
365076,-0.090,-0.340
365077,-0.125,-0.340
365078,-0.120,-0.300
365079,-0.155,-0.340
365080,-0.140,-0.320
365081,-0.130,-0.325
365082,-0.135,-0.315
365083,-0.115,-0.330
365084,-0.110,-0.330
365085,-0.095,-0.325
365086,-0.100,-0.315
365087,-0.115,-0.310
365088,-0.140,-0.290
365089,-0.100,-0.275
365090,-0.100,-0.270
365091,-0.090,-0.255
365092,-0.080,-0.260
365093,-0.115,-0.215
365094,-0.155,-0.230
365095,-0.130,-0.185
365096,-0.105,-0.135
365097,-0.085,-0.080
365098,-0.020,-0.065
365099,0.050,-0.095
365100,0.085,-0.100
365101,0.020,-0.075
365102,0.025,-0.085
365103,0.055,-0.105
365104,0.045,-0.160
365105,0.020,-0.180
365106,0.000,-0.215
365107,-0.035,-0.215
365108,-0.055,-0.245
365109,-0.095,-0.245
365110,-0.115,-0.240
365111,-0.160,-0.280
365112,-0.165,-0.320
365113,-0.185,-0.320
365114,-0.175,-0.345
365115,-0.195,-0.340
365116,-0.205,-0.360
365117,-0.220,-0.350
365118,-0.250,-0.350
365119,-0.235,-0.335
365120,-0.235,-0.355
365121,-0.240,-0.350
365122,-0.230,-0.320
365123,-0.220,-0.345
365124,-0.235,-0.325
365125,-0.220,-0.320
365126,-0.230,-0.325
365127,-0.195,-0.320
365128,-0.220,-0.335
365129,-0.205,-0.350
365130,-0.165,-0.320
365131,-0.160,-0.300
365132,-0.170,-0.310
365133,-0.170,-0.345
365134,-0.180,-0.335
365135,-0.180,-0.315
365136,-0.190,-0.305
365137,-0.205,-0.235
365138,-0.170,-0.150
365139,-0.135,-0.025
365140,-0.140,0.160
365141,-0.125,0.465
365142,0.010,0.815
365143,-0.005,1.100
365144,-0.190,1.275
365145,-0.510,1.460
365146,-1.005,1.720
365147,-1.720,1.935
365148,-2.300,2.025
365149,-2.690,2.000
365150,-2.830,1.925
365151,-2.835,1.820
365152,-2.720,1.645
365153,-2.570,1.515
365154,-2.485,1.430
365155,-2.395,1.385
365156,-2.295,1.455
365157,-2.295,1.670
365158,-2.375,1.980
365159,-2.335,2.205
365160,-2.280,2.030
365161,-2.180,1.520
365162,-2.040,0.885
365163,-1.935,0.365
365164,-1.815,0.000
365165,-1.680,-0.260
365166,-1.520,-0.400
365167,-1.365,-0.515
365168,-1.175,-0.545
365169,-1.010,-0.535
365170,-0.860,-0.520
365171,-0.710,-0.525
365172,-0.600,-0.550
365173,-0.570,-0.555
365174,-0.640,-0.535
365175,-0.785,-0.555
365176,-0.840,-0.530
365177,-0.855,-0.540
365178,-0.830,-0.550
365179,-0.850,-0.535
365180,-0.865,-0.510
365181,-0.875,-0.510
365182,-0.880,-0.515
365183,-0.865,-0.515
365184,-0.865,-0.505
365185,-0.835,-0.520
365186,-0.855,-0.510
365187,-0.835,-0.495
365188,-0.830,-0.480
365189,-0.865,-0.490
365190,-0.830,-0.505
365191,-0.800,-0.505
365192,-0.790,-0.510
365193,-0.775,-0.510
365194,-0.700,-0.520
365195,-0.705,-0.505
365196,-0.690,-0.515
365197,-0.675,-0.540
365198,-0.640,-0.545
365199,-0.635,-0.545
365200,-0.600,-0.575
365201,-0.565,-0.585
365202,-0.520,-0.600
365203,-0.465,-0.655
365204,-0.455,-0.635
365205,-0.430,-0.635
365206,-0.390,-0.640
365207,-0.405,-0.665
365208,-0.410,-0.665
365209,-0.385,-0.645
365210,-0.370,-0.625
365211,-0.370,-0.610
365212,-0.400,-0.570
365213,-0.420,-0.500
365214,-0.420,-0.475
365215,-0.450,-0.450
365216,-0.465,-0.400
365217,-0.505,-0.320
365218,-0.535,-0.310
365219,-0.575,-0.285
365220,-0.620,-0.250
365221,-0.675,-0.225
365222,-0.690,-0.215
365223,-0.680,-0.200
365224,-0.650,-0.195
365225,-0.590,-0.180
365226,-0.570,-0.190
365227,-0.560,-0.205
365228,-0.400,-0.205
365229,-0.060,-0.215
365230,0.150,-0.215
365231,0.205,-0.235
365232,0.225,-0.215
365233,0.200,-0.215
365234,0.195,-0.220
365235,0.195,-0.210
365236,0.195,-0.230
365237,0.185,-0.235
365238,0.190,-0.215
365239,0.180,-0.240
365240,0.150,-0.245
365241,0.185,-0.240
365242,0.260,-0.230
365243,0.290,-0.240
365244,0.295,-0.260
365245,0.305,-0.255
365246,0.305,-0.260
365247,0.310,-0.250
365248,0.310,-0.270
365249,0.315,-0.275
365250,0.335,-0.255
365251,0.320,-0.290
365252,0.320,-0.285
365253,0.355,-0.265
365254,0.350,-0.275
365255,0.325,-0.265
365256,0.325,-0.295
365257,0.325,-0.280
365258,0.325,-0.290
365259,0.325,-0.300
365260,0.305,-0.330
365261,0.305,-0.350
365262,0.330,-0.330
365263,0.310,-0.305
365264,0.310,-0.310
365265,0.320,-0.315
365266,0.270,-0.310
365267,0.260,-0.295
365268,0.250,-0.285
365269,0.245,-0.310
365270,0.240,-0.335
365271,0.255,-0.330
365272,0.265,-0.340
365273,0.230,-0.320
365274,0.215,-0.315
365275,0.215,-0.290
365276,0.185,-0.310
365277,0.170,-0.305
365278,0.155,-0.300
365279,0.155,-0.285
365280,0.130,-0.295
365281,0.160,-0.290
365282,0.100,-0.280
365283,0.110,-0.305
365284,0.090,-0.320
365285,0.085,-0.315
365286,0.080,-0.290
365287,0.075,-0.255
365288,0.040,-0.280
365289,0.020,-0.295
365290,0.025,-0.290
365291,0.020,-0.285
365292,0.040,-0.280
365293,0.010,-0.265
365294,0.015,-0.245
365295,0.000,-0.230
365296,-0.015,-0.180
365297,0.005,-0.190
365298,0.000,-0.180
365299,-0.005,-0.140
365300,0.025,-0.095
365301,0.065,-0.070
365302,0.065,-0.030
365303,0.075,-0.035
365304,0.100,-0.060
365305,0.155,-0.095
365306,0.145,-0.115
365307,0.125,-0.115
365308,0.080,-0.105
365309,0.035,-0.165
365310,0.000,-0.185
365311,-0.005,-0.185
365312,-0.020,-0.185
365313,-0.040,-0.195
365314,-0.075,-0.225
365315,-0.125,-0.305
365316,-0.140,-0.320
365317,-0.135,-0.340
365318,-0.145,-0.335
365319,-0.145,-0.355
365320,-0.160,-0.330
365321,-0.170,-0.330
365322,-0.170,-0.340
365323,-0.175,-0.340
365324,-0.185,-0.355
365325,-0.190,-0.360
365326,-0.205,-0.350
365327,-0.175,-0.320
365328,-0.175,-0.310
365329,-0.200,-0.315
365330,-0.205,-0.340
365331,-0.200,-0.340
365332,-0.230,-0.335
365333,-0.195,-0.310
365334,-0.200,-0.315
365335,-0.215,-0.305
365336,-0.205,-0.300
365337,-0.220,-0.325
365338,-0.210,-0.325
365339,-0.195,-0.315
365340,-0.225,-0.275
365341,-0.245,-0.235
365342,-0.235,-0.140
365343,-0.230,0.015
365344,-0.190,0.230
365345,-0.130,0.560
365346,-0.045,0.840
365347,-0.110,1.045
365348,-0.395,1.240
365349,-0.860,1.475
365350,-1.530,1.730
365351,-2.205,1.910
365352,-2.705,1.945
365353,-2.950,1.940
365354,-2.975,1.920
365355,-2.885,1.790
365356,-2.785,1.690
365357,-2.615,1.595
365358,-2.485,1.490
365359,-2.360,1.455
365360,-2.180,1.565
365361,-2.025,1.755
365362,-1.885,1.960
365363,-1.780,1.880
365364,-1.640,1.465
365365,-1.500,0.830
365366,-1.365,0.260
365367,-1.265,-0.145
365368,-1.110,-0.410
365369,-0.965,-0.530
365370,-0.830,-0.565
365371,-0.685,-0.585
365372,-0.500,-0.590
365373,-0.320,-0.540
365374,-0.125,-0.510
365375,0.070,-0.515
365376,0.205,-0.535
365377,0.250,-0.550
365378,0.325,-0.545
365379,0.370,-0.555
365380,0.380,-0.570
365381,0.370,-0.555
365382,0.415,-0.530
365383,0.440,-0.530
365384,0.445,-0.530
365385,0.500,-0.535
365386,0.500,-0.520
365387,0.510,-0.545
365388,0.510,-0.540
365389,0.505,-0.535
365390,0.545,-0.525
365391,0.575,-0.515
365392,0.585,-0.540
365393,0.620,-0.540
365394,0.660,-0.555
365395,0.675,-0.545
365396,0.670,-0.565
365397,0.690,-0.575
365398,0.690,-0.600
365399,0.730,-0.590
365400,0.755,-0.620
365401,0.765,-0.640
365402,0.825,-0.640
365403,0.855,-0.650
365404,0.890,-0.685
365405,0.905,-0.705
365406,0.945,-0.715
365407,0.955,-0.720
365408,0.965,-0.740
365409,0.970,-0.780
365410,1.000,-0.780
365411,0.990,-0.745
365412,1.010,-0.735
365413,1.000,-0.705
365414,0.990,-0.685
365415,0.960,-0.665
365416,0.935,-0.630
365417,0.925,-0.585
365418,0.905,-0.545
365419,0.880,-0.465
365420,0.835,-0.415
365421,0.795,-0.375
365422,0.775,-0.325
365423,0.720,-0.280
365424,0.635,-0.275
365425,0.625,-0.270
365426,0.570,-0.235
365427,0.535,-0.230
365428,0.470,-0.240
365429,0.450,-0.220
365430,0.420,-0.215
365431,0.380,-0.190
365432,0.365,-0.205
365433,0.300,-0.210
365434,0.200,-0.195
365435,0.000,-0.185
365436,-0.205,-0.235
365437,-0.365,-0.275
365438,-0.610,-0.255
365439,-0.725,-0.230
365440,-0.815,-0.235
365441,-0.885,-0.240
365442,-0.900,-0.235
365443,-0.935,-0.230
365444,-0.960,-0.225
365445,-1.015,-0.265
365446,-1.055,-0.265
365447,-1.060,-0.240
365448,-1.065,-0.260
365449,-1.100,-0.320
365450,-1.090,-0.320
365451,-1.125,-0.305
365452,-1.100,-0.300
365453,-1.110,-0.310
365454,-1.115,-0.330
365455,-1.135,-0.320
365456,-1.150,-0.315
365457,-1.170,-0.300
365458,-1.190,-0.305
365459,-1.200,-0.340
365460,-1.180,-0.365
365461,-1.215,-0.350
365462,-1.250,-0.365
365463,-1.310,-0.330
365464,-1.325,-0.325
365465,-1.310,-0.320
365466,-1.280,-0.325
365467,-1.320,-0.320
365468,-1.330,-0.315
365469,-1.380,-0.330
365470,-1.435,-0.350
365471,-1.450,-0.305
365472,-1.460,-0.300
365473,-1.465,-0.305
365474,-1.490,-0.305
365475,-1.510,-0.340
365476,-1.520,-0.325
365477,-1.575,-0.340
365478,-1.635,-0.355
365479,-1.665,-0.350
365480,-1.700,-0.320
365481,-1.735,-0.305
365482,-1.775,-0.340
365483,-1.820,-0.335
365484,-1.840,-0.320
365485,-1.855,-0.315
365486,-1.865,-0.310
365487,-1.875,-0.330
365488,-1.920,-0.335
365489,-1.920,-0.315
365490,-1.930,-0.320
365491,-1.930,-0.320
365492,-1.965,-0.295
365493,-1.995,-0.300
365494,-1.990,-0.315
365495,-1.985,-0.315
365496,-2.030,-0.300
365497,-2.010,-0.230
365498,-2.000,-0.225
365499,-2.010,-0.180
365500,-2.010,-0.175
365501,-1.975,-0.155
365502,-1.935,-0.110
365503,-1.915,-0.100
365504,-1.890,-0.090
365505,-1.860,-0.090
365506,-1.825,-0.090
365507,-1.825,-0.095
365508,-1.820,-0.125
365509,-1.825,-0.160
365510,-1.855,-0.160
365511,-1.905,-0.160
365512,-1.925,-0.175
365513,-1.955,-0.200
365514,-1.955,-0.185
365515,-1.965,-0.225
365516,-2.000,-0.285
365517,-2.015,-0.315
365518,-2.020,-0.345
365519,-2.010,-0.370
365520,-1.990,-0.350
365521,-2.005,-0.350
365522,-1.990,-0.360
365523,-1.985,-0.370
365524,-2.000,-0.340
365525,-2.030,-0.345
365526,-2.025,-0.350
365527,-2.015,-0.360
365528,-2.020,-0.345
365529,-2.005,-0.340
365530,-1.975,-0.330
365531,-1.955,-0.335
365532,-1.940,-0.355
365533,-1.915,-0.340
365534,-1.880,-0.370
365535,-1.870,-0.380
365536,-1.850,-0.380
365537,-1.830,-0.365
365538,-1.845,-0.360
365539,-1.820,-0.355
365540,-1.800,-0.365
365541,-1.810,-0.320
365542,-1.810,-0.290
365543,-1.795,-0.190
365544,-1.750,-0.040
365545,-1.675,0.170
365546,-1.560,0.490
365547,-1.480,0.780
365548,-1.530,1.010
365549,-1.820,1.250
365550,-2.200,1.570
365551,-2.715,1.815
365552,-2.960,1.910
365553,-3.060,1.930
365554,-3.100,1.920
365555,-3.120,1.865
365556,-3.125,1.725
365557,-3.105,1.615
365558,-3.065,1.550
365559,-3.065,1.440
365560,-3.015,1.450
365561,-2.915,1.550
365562,-2.875,1.765
365563,-2.795,1.915
365564,-2.570,1.735
365565,-2.390,1.210
365566,-2.175,0.520
365567,-1.845,-0.030
365568,-1.375,-0.335
365569,-1.105,-0.525
365570,-0.935,-0.580
365571,-0.775,-0.615
365572,-0.605,-0.590
365573,-0.390,-0.580
365574,-0.220,-0.560
365575,-0.095,-0.555
365576,-0.030,-0.570
365577,0.010,-0.525
365578,0.120,-0.535
365579,0.215,-0.565
365580,0.255,-0.535
365581,0.285,-0.555
365582,0.280,-0.530
365583,0.275,-0.525
365584,0.280,-0.525
365585,0.290,-0.525
365586,0.310,-0.525
365587,0.325,-0.530
365588,0.305,-0.525
365589,0.340,-0.505
365590,0.345,-0.515
365591,0.370,-0.510
365592,0.375,-0.535
365593,0.390,-0.515
365594,0.425,-0.525
365595,0.420,-0.525
365596,0.410,-0.555
365597,0.410,-0.535
365598,0.415,-0.555
365599,0.435,-0.575
365600,0.440,-0.595
365601,0.470,-0.620
365602,0.480,-0.640
365603,0.490,-0.665
365604,0.540,-0.675
365605,0.550,-0.670
365606,0.575,-0.680
365607,0.615,-0.710
365608,0.610,-0.705
365609,0.645,-0.720
365610,0.665,-0.730
365611,0.675,-0.715
365612,0.665,-0.715
365613,0.650,-0.665
365614,0.625,-0.635
365615,0.575,-0.610
365616,0.565,-0.550
365617,0.530,-0.530
365618,0.460,-0.450
365619,0.440,-0.440
365620,0.360,-0.380
365621,0.310,-0.340
365622,0.240,-0.300
365623,0.195,-0.290
365624,0.125,-0.270
365625,0.060,-0.275
365626,0.025,-0.250
365627,-0.045,-0.245
365628,-0.075,-0.260
365629,-0.140,-0.265
365630,-0.210,-0.265
365631,-0.235,-0.300
365632,-0.290,-0.290
365633,-0.315,-0.300
365634,-0.360,-0.295
365635,-0.390,-0.285
365636,-0.390,-0.290
365637,-0.420,-0.295
365638,-0.430,-0.315
365639,-0.445,-0.330
365640,-0.455,-0.340
365641,-0.465,-0.345
365642,-0.475,-0.335
365643,-0.470,-0.345
365644,-0.480,-0.350
365645,-0.500,-0.325
365646,-0.500,-0.340
365647,-0.510,-0.365
365648,-0.520,-0.365
365649,-0.490,-0.355
365650,-0.505,-0.345
365651,-0.495,-0.360
365652,-0.515,-0.380
365653,-0.495,-0.370
365654,-0.505,-0.375
365655,-0.495,-0.390
365656,-0.515,-0.390
365657,-0.510,-0.370
365658,-0.515,-0.370
365659,-0.495,-0.385
365660,-0.480,-0.395
365661,-0.490,-0.400
365662,-0.485,-0.400
365663,-0.470,-0.390
365664,-0.470,-0.390
365665,-0.475,-0.385
365666,-0.495,-0.395
365667,-0.485,-0.390
365668,-0.495,-0.400
365669,-0.495,-0.390
365670,-0.490,-0.390
365671,-0.500,-0.390
365672,-0.520,-0.400
365673,-0.515,-0.395
365674,-0.505,-0.385
365675,-0.500,-0.385
365676,-0.510,-0.375
365677,-0.530,-0.360
365678,-0.505,-0.385
365679,-0.480,-0.365
365680,-0.500,-0.345
365681,-0.515,-0.365
365682,-0.475,-0.365
365683,-0.445,-0.360
365684,-0.410,-0.340
365685,-0.405,-0.345
365686,-0.410,-0.355
365687,-0.415,-0.360
365688,-0.405,-0.345
365689,-0.400,-0.340
365690,-0.385,-0.340
365691,-0.395,-0.330
365692,-0.390,-0.335
365693,-0.400,-0.335
365694,-0.395,-0.355
365695,-0.385,-0.315
365696,-0.385,-0.265
365697,-0.400,-0.235
365698,-0.380,-0.220
365699,-0.335,-0.185
365700,-0.305,-0.150
365701,-0.275,-0.130
365702,-0.265,-0.125
365703,-0.240,-0.135
365704,-0.215,-0.155
365705,-0.200,-0.180
365706,-0.220,-0.210
365707,-0.210,-0.200
365708,-0.255,-0.200
365709,-0.280,-0.250
365710,-0.300,-0.260
365711,-0.310,-0.260
365712,-0.320,-0.275
365713,-0.370,-0.305
365714,-0.400,-0.355
365715,-0.375,-0.405
365716,-0.380,-0.390
365717,-0.355,-0.395
365718,-0.350,-0.390
365719,-0.360,-0.385
365720,-0.380,-0.400
365721,-0.335,-0.375
365722,-0.360,-0.370
365723,-0.365,-0.395
365724,-0.360,-0.400
365725,-0.370,-0.375
365726,-0.315,-0.400
365727,-0.325,-0.400
365728,-0.335,-0.415
365729,-0.330,-0.370
365730,-0.320,-0.380
365731,-0.330,-0.400
365732,-0.310,-0.375
365733,-0.315,-0.385
365734,-0.320,-0.375
365735,-0.305,-0.380
365736,-0.300,-0.355
365737,-0.275,-0.360
365738,-0.265,-0.350
365739,-0.255,-0.300
365740,-0.265,-0.215
365741,-0.260,-0.080
365742,-0.235,0.115
365743,-0.155,0.420
365744,-0.065,0.685
365745,-0.110,0.885
365746,-0.400,1.055
365747,-0.870,1.300
365748,-1.555,1.570
365749,-2.190,1.700
365750,-2.580,1.700
365751,-2.735,1.685
365752,-2.770,1.640
365753,-2.710,1.520
365754,-2.605,1.380
365755,-2.475,1.255
365756,-2.385,1.130
365757,-2.285,1.060
365758,-2.090,1.135
365759,-1.985,1.320
365760,-1.835,1.465
365761,-1.715,1.360
365762,-1.590,0.925
365763,-1.460,0.285
365764,-1.345,-0.235
365765,-1.200,-0.495
365766,-1.050,-0.610
365767,-0.925,-0.625
365768,-0.770,-0.660
365769,-0.610,-0.620
365770,-0.425,-0.610
365771,-0.250,-0.570
365772,-0.075,-0.560
365773,0.085,-0.540
365774,0.190,-0.555
365775,0.260,-0.530
365776,0.295,-0.535
365777,0.335,-0.540
365778,0.360,-0.515
365779,0.395,-0.540
365780,0.395,-0.540
365781,0.430,-0.525
365782,0.425,-0.515
365783,0.450,-0.535
365784,0.465,-0.515
365785,0.470,-0.525
365786,0.485,-0.535
365787,0.480,-0.505
365788,0.500,-0.505
365789,0.535,-0.525
365790,0.560,-0.515
365791,0.585,-0.540
365792,0.590,-0.540
365793,0.610,-0.535
365794,0.650,-0.560
365795,0.645,-0.560
365796,0.695,-0.570
365797,0.760,-0.580
365798,0.795,-0.615
365799,0.795,-0.620
365800,0.835,-0.630
365801,0.870,-0.605
365802,0.895,-0.640
365803,0.930,-0.660
365804,0.960,-0.685
365805,0.985,-0.685
365806,1.015,-0.690
365807,1.045,-0.700
365808,1.030,-0.685
365809,1.055,-0.675
365810,1.050,-0.675
365811,1.070,-0.635
365812,1.035,-0.615
365813,1.010,-0.555
365814,0.975,-0.525
365815,0.940,-0.505
365816,0.890,-0.460
365817,0.860,-0.405
365818,0.815,-0.380
365819,0.720,-0.360
365820,0.705,-0.320
365821,0.625,-0.310
365822,0.605,-0.300
365823,0.545,-0.300
365824,0.490,-0.305
365825,0.415,-0.290
365826,0.360,-0.330
365827,0.335,-0.330
365828,0.300,-0.330
365829,0.255,-0.340
365830,0.220,-0.335
365831,0.210,-0.340
365832,0.185,-0.375
365833,0.180,-0.360
365834,0.140,-0.385
365835,0.150,-0.380
365836,0.130,-0.370
365837,0.165,-0.405
365838,0.145,-0.405
365839,0.130,-0.410
365840,0.130,-0.410
365841,0.150,-0.390
365842,0.150,-0.400
365843,0.125,-0.430
365844,0.135,-0.430
365845,0.145,-0.435
365846,0.145,-0.440
365847,0.130,-0.435
365848,0.130,-0.415
365849,0.130,-0.420
365850,0.140,-0.415
365851,0.135,-0.470
365852,0.165,-0.470
365853,0.165,-0.445
365854,0.180,-0.445
365855,0.165,-0.470
365856,0.180,-0.450
365857,0.175,-0.465
365858,0.175,-0.465
365859,0.190,-0.480
365860,0.190,-0.460
365861,0.205,-0.480
365862,0.200,-0.465
365863,0.195,-0.465
365864,0.200,-0.480
365865,0.195,-0.465
365866,0.190,-0.460
365867,0.205,-0.470
365868,0.195,-0.475
365869,0.215,-0.465
365870,0.190,-0.450
365871,0.190,-0.450
365872,0.200,-0.460
365873,0.200,-0.445
365874,0.190,-0.480
365875,0.200,-0.455
365876,0.190,-0.450
