'sample interval','ECG1','ECG2'
'0.004 sec','mV','mV'
750000,-0.875,1.340
750001,-0.820,1.100
750002,-0.760,0.920
750003,-0.710,0.750
750004,-0.710,0.610
750005,-0.640,0.575
750006,-0.560,0.710
750007,-0.550,0.970
750008,-0.505,1.175
750009,-0.460,1.100
750010,-0.415,0.640
750011,-0.340,0.005
750012,-0.290,-0.500
750013,-0.200,-0.720
750014,-0.155,-0.765
750015,-0.095,-0.690
750016,-0.020,-0.665
750017,0.070,-0.670
750018,0.170,-0.625
750019,0.240,-0.590
750020,0.320,-0.540
750021,0.350,-0.550
750022,0.375,-0.560
750023,0.405,-0.545
750024,0.425,-0.540
750025,0.460,-0.525
750026,0.470,-0.530
750027,0.470,-0.520
750028,0.490,-0.510
750029,0.475,-0.500
750030,0.500,-0.515
750031,0.510,-0.490
750032,0.490,-0.480
750033,0.505,-0.490
750034,0.510,-0.500
750035,0.495,-0.495
750036,0.510,-0.500
750037,0.510,-0.490
750038,0.515,-0.485
750039,0.520,-0.490
750040,0.530,-0.495
750041,0.530,-0.495
750042,0.540,-0.505
750043,0.535,-0.515
750044,0.540,-0.515
750045,0.575,-0.515
750046,0.575,-0.520
750047,0.570,-0.550
750048,0.590,-0.545
750049,0.610,-0.560
750050,0.610,-0.535
750051,0.615,-0.550
750052,0.590,-0.590
750053,0.620,-0.630
750054,0.630,-0.625
750055,0.635,-0.620
750056,0.640,-0.660
750057,0.640,-0.660
750058,0.660,-0.670
750059,0.665,-0.645
750060,0.670,-0.655
750061,0.685,-0.640
750062,0.685,-0.640
750063,0.675,-0.615
750064,0.690,-0.595
750065,0.665,-0.550
750066,0.645,-0.515
750067,0.615,-0.465
750068,0.590,-0.440
750069,0.560,-0.410
750070,0.530,-0.385
750071,0.540,-0.355
750072,0.495,-0.330
750073,0.475,-0.315
750074,0.450,-0.305
750075,0.450,-0.315
750076,0.425,-0.275
750077,0.410,-0.310
750078,0.395,-0.310
750079,0.365,-0.320
750080,0.330,-0.315
750081,0.310,-0.320
750082,0.330,-0.320
750083,0.300,-0.330
750084,0.315,-0.330
750085,0.310,-0.330
750086,0.290,-0.355
750087,0.270,-0.355
750088,0.275,-0.345
750089,0.260,-0.340
750090,0.270,-0.370
750091,0.260,-0.380
750092,0.250,-0.395
750093,0.230,-0.370
750094,0.220,-0.395
750095,0.240,-0.390
750096,0.255,-0.385
750097,0.270,-0.400
750098,0.260,-0.410
750099,0.255,-0.405
750100,0.270,-0.400
750101,0.240,-0.400
750102,0.240,-0.400
750103,0.220,-0.415
750104,0.240,-0.400
750105,0.225,-0.400
750106,0.225,-0.430
750107,0.240,-0.425
750108,0.260,-0.410
750109,0.260,-0.425
750110,0.230,-0.435
750111,0.230,-0.420
750112,0.230,-0.440
750113,0.245,-0.450
750114,0.235,-0.430
750115,0.240,-0.430
750116,0.235,-0.455
750117,0.240,-0.445
750118,0.215,-0.435
750119,0.240,-0.445
750120,0.240,-0.440
750121,0.205,-0.450
750122,0.235,-0.435
750123,0.210,-0.420
750124,0.195,-0.430
750125,0.220,-0.430
750126,0.225,-0.430
750127,0.210,-0.410
750128,0.220,-0.410
750129,0.230,-0.425
750130,0.215,-0.410
750131,0.225,-0.405
750132,0.210,-0.410
750133,0.220,-0.415
750134,0.240,-0.430
750135,0.220,-0.400
750136,0.215,-0.400
750137,0.190,-0.400
750138,0.195,-0.400
750139,0.200,-0.400
750140,0.180,-0.385
750141,0.200,-0.410
750142,0.185,-0.415
750143,0.195,-0.420
750144,0.205,-0.390
750145,0.175,-0.400
750146,0.170,-0.400
750147,0.190,-0.415
750148,0.210,-0.380
750149,0.200,-0.390
750150,0.210,-0.415
750151,0.200,-0.400
750152,0.170,-0.400
750153,0.180,-0.380
750154,0.160,-0.385
750155,0.205,-0.390
750156,0.195,-0.390
750157,0.185,-0.360
750158,0.205,-0.385
750159,0.205,-0.395
750160,0.210,-0.380
750161,0.165,-0.370
750162,0.155,-0.365
750163,0.185,-0.375
750164,0.175,-0.380
750165,0.190,-0.360
750166,0.190,-0.360
750167,0.185,-0.380
750168,0.190,-0.395
750169,0.205,-0.370
750170,0.200,-0.320
750171,0.215,-0.285
750172,0.215,-0.295
750173,0.220,-0.265
750174,0.225,-0.260
750175,0.265,-0.230
750176,0.260,-0.200
750177,0.270,-0.190
750178,0.265,-0.170
750179,0.280,-0.190
750180,0.295,-0.210
750181,0.285,-0.250
750182,0.255,-0.250
750183,0.255,-0.255
750184,0.240,-0.290
750185,0.195,-0.335
750186,0.185,-0.325
750187,0.180,-0.330
750188,0.165,-0.345
750189,0.180,-0.395
750190,0.165,-0.410
750191,0.155,-0.435
750192,0.140,-0.435
750193,0.160,-0.440
750194,0.145,-0.435
750195,0.120,-0.440
750196,0.170,-0.440
750197,0.150,-0.460
750198,0.150,-0.460
750199,0.140,-0.440
750200,0.150,-0.440
750201,0.150,-0.460
750202,0.170,-0.460
750203,0.140,-0.420
750204,0.115,-0.445
750205,0.105,-0.445
750206,0.115,-0.450
750207,0.100,-0.440
750208,0.125,-0.420
750209,0.120,-0.430
750210,0.145,-0.435
750211,0.120,-0.400
750212,0.115,-0.410
750213,0.130,-0.420
750214,0.110,-0.410
750215,0.115,-0.335
750216,0.100,-0.230
750217,0.110,-0.055
750218,0.130,0.125
750219,0.180,0.445
750220,0.185,0.760
750221,0.125,0.955
750222,0.000,1.140
750223,-0.205,1.330
750224,-0.540,1.570
750225,-0.800,1.715
750226,-1.035,1.695
750227,-1.105,1.570
750228,-1.100,1.410
750229,-1.040,1.235
750230,-0.960,1.020
750231,-0.910,0.820
750232,-0.865,0.670
750233,-0.820,0.630
750234,-0.765,0.735
750235,-0.720,0.950
750236,-0.675,1.240
750237,-0.630,1.270
750238,-0.560,0.875
750239,-0.490,0.255
750240,-0.455,-0.350
750241,-0.380,-0.635
750242,-0.325,-0.745
750243,-0.250,-0.710
750244,-0.190,-0.690
750245,-0.100,-0.650
750246,-0.005,-0.625
750247,0.065,-0.590
750248,0.140,-0.560
750249,0.200,-0.540
750250,0.235,-0.540
750251,0.285,-0.540
750252,0.290,-0.535
750253,0.290,-0.515
750254,0.310,-0.505
750255,0.300,-0.500
750256,0.315,-0.500
750257,0.330,-0.510
750258,0.325,-0.490
750259,0.315,-0.490
750260,0.335,-0.485
750261,0.340,-0.490
750262,0.335,-0.465
750263,0.340,-0.470
750264,0.350,-0.480
750265,0.355,-0.490
750266,0.360,-0.500
750267,0.360,-0.500
750268,0.365,-0.510
750269,0.360,-0.515
750270,0.370,-0.510
750271,0.395,-0.510
750272,0.415,-0.525
750273,0.450,-0.545
750274,0.405,-0.560
750275,0.435,-0.550
750276,0.450,-0.570
750277,0.445,-0.575
750278,0.460,-0.600
750279,0.455,-0.610
750280,0.500,-0.615
750281,0.510,-0.625
750282,0.515,-0.640
750283,0.540,-0.660
750284,0.555,-0.655
750285,0.565,-0.665
750286,0.550,-0.680
750287,0.565,-0.660
750288,0.595,-0.650
750289,0.600,-0.645
750290,0.590,-0.620
750291,0.550,-0.590
750292,0.550,-0.550
750293,0.545,-0.530
750294,0.525,-0.495
750295,0.535,-0.455
750296,0.505,-0.415
750297,0.485,-0.390
750298,0.475,-0.370
750299,0.430,-0.330
750300,0.420,-0.310
750301,0.390,-0.310
750302,0.370,-0.305
750303,0.345,-0.310
750304,0.360,-0.315
750305,0.335,-0.325
750306,0.315,-0.330
750307,0.295,-0.355
750308,0.280,-0.335
750309,0.265,-0.340
750310,0.250,-0.340
750311,0.240,-0.365
750312,0.235,-0.360
750313,0.240,-0.345
750314,0.220,-0.350
750315,0.215,-0.370
750316,0.200,-0.385
750317,0.205,-0.385
750318,0.205,-0.365
750319,0.195,-0.405
750320,0.205,-0.380
750321,0.195,-0.390
750322,0.195,-0.395
750323,0.205,-0.385
750324,0.240,-0.395
750325,0.235,-0.400
750326,0.215,-0.390
750327,0.185,-0.395
750328,0.205,-0.405
750329,0.220,-0.420
750330,0.220,-0.410
750331,0.210,-0.410
750332,0.215,-0.430
750333,0.215,-0.425
750334,0.210,-0.410
750335,0.235,-0.420
750336,0.240,-0.430
750337,0.205,-0.420
750338,0.215,-0.400
750339,0.195,-0.420
750340,0.195,-0.420
750341,0.220,-0.405
750342,0.240,-0.420
750343,0.245,-0.440
750344,0.230,-0.450
750345,0.230,-0.435
750346,0.225,-0.440
750347,0.185,-0.420
750348,0.210,-0.425
750349,0.215,-0.425
750350,0.230,-0.440
750351,0.200,-0.425
750352,0.210,-0.435
750353,0.205,-0.420
750354,0.220,-0.430
750355,0.210,-0.430
750356,0.170,-0.400
750357,0.195,-0.420
750358,0.210,-0.425
750359,0.180,-0.440
750360,0.185,-0.410
750361,0.155,-0.425
750362,0.170,-0.430
750363,0.185,-0.425
750364,0.175,-0.405
750365,0.160,-0.405
750366,0.175,-0.435
750367,0.180,-0.430
750368,0.175,-0.420
750369,0.165,-0.405
750370,0.150,-0.420
750371,0.185,-0.420
750372,0.170,-0.415
750373,0.160,-0.390
750374,0.190,-0.390
750375,0.180,-0.415
750376,0.180,-0.405
750377,0.190,-0.405
750378,0.195,-0.385
750379,0.175,-0.395
750380,0.175,-0.405
750381,0.160,-0.390
750382,0.170,-0.375
750383,0.180,-0.380
750384,0.185,-0.390
750385,0.185,-0.380
750386,0.195,-0.380
750387,0.190,-0.390
750388,0.210,-0.385
750389,0.200,-0.380
750390,0.175,-0.375
750391,0.160,-0.385
750392,0.200,-0.370
750393,0.180,-0.325
750394,0.195,-0.280
750395,0.175,-0.265
750396,0.220,-0.260
750397,0.210,-0.235
750398,0.205,-0.200
750399,0.235,-0.165
750400,0.245,-0.205
750401,0.255,-0.200
750402,0.270,-0.195
750403,0.260,-0.255
750404,0.250,-0.265
750405,0.245,-0.275
750406,0.235,-0.300
750407,0.200,-0.315
750408,0.190,-0.360
750409,0.195,-0.355
750410,0.180,-0.325
750411,0.130,-0.360
750412,0.145,-0.410
750413,0.145,-0.455
750414,0.150,-0.450
750415,0.155,-0.445
750416,0.135,-0.455
750417,0.165,-0.460
750418,0.145,-0.450
750419,0.145,-0.430
750420,0.165,-0.430
750421,0.160,-0.450
750422,0.155,-0.425
750423,0.115,-0.415
750424,0.100,-0.435
750425,0.120,-0.445
750426,0.110,-0.415
750427,0.125,-0.420
750428,0.120,-0.450
750429,0.135,-0.430
750430,0.110,-0.435
750431,0.105,-0.415
750432,0.125,-0.435
750433,0.140,-0.425
750434,0.120,-0.410
750435,0.130,-0.395
750436,0.130,-0.350
750437,0.135,-0.265
750438,0.150,-0.115
750439,0.135,0.070
750440,0.160,0.375
750441,0.220,0.720
750442,0.145,0.985
750443,0.035,1.150
750444,-0.160,1.365
750445,-0.460,1.585
750446,-0.755,1.760
750447,-1.015,1.750
750448,-1.130,1.665
750449,-1.105,1.480
750450,-1.020,1.260
750451,-0.960,1.040
750452,-0.905,0.855
750453,-0.870,0.715
750454,-0.815,0.680
750455,-0.735,0.815
750456,-0.700,1.100
750457,-0.675,1.350
750458,-0.605,1.345
750459,-0.545,0.905
750460,-0.495,0.240
750461,-0.455,-0.320
750462,-0.375,-0.620
750463,-0.325,-0.700
750464,-0.260,-0.680
750465,-0.180,-0.665
750466,-0.100,-0.660
750467,-0.010,-0.620
750468,0.055,-0.580
750469,0.150,-0.565
750470,0.200,-0.570
750471,0.205,-0.575
750472,0.220,-0.555
750473,0.250,-0.545
750474,0.275,-0.545
750475,0.295,-0.535
750476,0.280,-0.545
750477,0.300,-0.545
750478,0.310,-0.530
750479,0.305,-0.540
750480,0.295,-0.515
750481,0.300,-0.505
750482,0.320,-0.495
750483,0.315,-0.505
750484,0.305,-0.485
750485,0.300,-0.495
750486,0.330,-0.510
750487,0.335,-0.485
750488,0.330,-0.485
750489,0.335,-0.505
750490,0.345,-0.505
750491,0.335,-0.520
750492,0.350,-0.530
750493,0.350,-0.525
750494,0.375,-0.530
750495,0.385,-0.555
750496,0.365,-0.565
750497,0.365,-0.575
750498,0.400,-0.605
750499,0.420,-0.625
750500,0.415,-0.635
750501,0.430,-0.645
750502,0.435,-0.660
750503,0.445,-0.675
750504,0.480,-0.710
750505,0.480,-0.705
750506,0.485,-0.685
750507,0.470,-0.710
750508,0.465,-0.710
750509,0.505,-0.695
750510,0.495,-0.655
750511,0.490,-0.630
750512,0.475,-0.610
750513,0.435,-0.595
750514,0.440,-0.530
750515,0.415,-0.470
750516,0.415,-0.445
750517,0.395,-0.405
750518,0.380,-0.375
750519,0.345,-0.365
750520,0.350,-0.345
750521,0.310,-0.345
750522,0.285,-0.300
750523,0.265,-0.310
750524,0.250,-0.340
750525,0.225,-0.360
750526,0.205,-0.350
750527,0.200,-0.370
750528,0.160,-0.385
750529,0.125,-0.380
750530,0.145,-0.390
750531,0.145,-0.385
750532,0.160,-0.385
750533,0.130,-0.395
750534,0.130,-0.395
750535,0.130,-0.390
750536,0.120,-0.410
750537,0.100,-0.425
750538,0.115,-0.420
750539,0.130,-0.420
750540,0.110,-0.410
750541,0.100,-0.430
750542,0.095,-0.420
750543,0.130,-0.415
750544,0.115,-0.445
750545,0.110,-0.435
750546,0.130,-0.450
750547,0.120,-0.440
750548,0.125,-0.450
750549,0.120,-0.445
750550,0.135,-0.445
750551,0.125,-0.465
750552,0.120,-0.450
750553,0.105,-0.455
750554,0.135,-0.470
750555,0.130,-0.450
750556,0.115,-0.450
750557,0.120,-0.470
750558,0.125,-0.470
750559,0.125,-0.455
750560,0.120,-0.465
750561,0.100,-0.485
750562,0.100,-0.490
750563,0.100,-0.470
750564,0.090,-0.465
750565,0.095,-0.470
750566,0.105,-0.475
750567,0.095,-0.460
750568,0.095,-0.445
750569,0.080,-0.465
750570,0.080,-0.470
750571,0.080,-0.475
750572,0.085,-0.450
750573,0.075,-0.480
750574,0.075,-0.465
750575,0.100,-0.455
750576,0.085,-0.435
750577,0.090,-0.435
750578,0.095,-0.455
750579,0.115,-0.430
750580,0.090,-0.440
750581,0.090,-0.425
750582,0.090,-0.420
750583,0.095,-0.440
750584,0.105,-0.440
750585,0.090,-0.440
750586,0.075,-0.445
750587,0.110,-0.430
750588,0.095,-0.400
750589,0.090,-0.430
750590,0.085,-0.415
750591,0.065,-0.410
750592,0.075,-0.405
750593,0.065,-0.390
750594,0.075,-0.420
750595,0.095,-0.430
750596,0.065,-0.420
750597,0.065,-0.390
750598,0.065,-0.400
750599,0.060,-0.420
750600,0.070,-0.405
750601,0.085,-0.405
750602,0.085,-0.405
750603,0.100,-0.405
750604,0.095,-0.420
750605,0.100,-0.390
750606,0.100,-0.385
750607,0.110,-0.390
750608,0.100,-0.360
750609,0.075,-0.330
750610,0.110,-0.310
750611,0.100,-0.295
750612,0.155,-0.240
750613,0.145,-0.225
750614,0.140,-0.190
750615,0.140,-0.210
750616,0.165,-0.180
750617,0.180,-0.195
750618,0.175,-0.240
750619,0.165,-0.260
750620,0.180,-0.285
750621,0.125,-0.295
750622,0.130,-0.320
750623,0.115,-0.340
750624,0.130,-0.370
750625,0.100,-0.380
750626,0.065,-0.375
750627,0.030,-0.405
750628,0.050,-0.440
750629,0.065,-0.445
750630,0.060,-0.465
750631,0.070,-0.460
750632,0.065,-0.445
750633,0.065,-0.465
750634,0.055,-0.440
750635,0.075,-0.445
750636,0.085,-0.460
750637,0.080,-0.450
750638,0.080,-0.460
750639,0.075,-0.445
750640,0.095,-0.450
750641,0.085,-0.445
750642,0.075,-0.455
750643,0.075,-0.445
750644,0.080,-0.440
750645,0.085,-0.445
750646,0.065,-0.430
750647,0.070,-0.435
750648,0.075,-0.440
750649,0.065,-0.410
750650,0.065,-0.390
750651,0.080,-0.370
750652,0.085,-0.280
750653,0.070,-0.150
750654,0.065,0.030
750655,0.115,0.370
750656,0.165,0.770
750657,0.110,1.070
750658,-0.010,1.340
750659,-0.200,1.630
750660,-0.485,1.905
750661,-0.810,2.075
750662,-1.020,2.065
750663,-1.165,1.975
750664,-1.115,1.820
750665,-1.040,1.620
750666,-0.970,1.440
750667,-0.930,1.290
750668,-0.865,1.165
750669,-0.805,1.130
750670,-0.765,1.280
750671,-0.720,1.590
750672,-0.695,1.855
750673,-0.650,1.835
750674,-0.575,1.340
750675,-0.510,0.660
750676,-0.475,0.045
750677,-0.370,-0.315
750678,-0.305,-0.505
750679,-0.240,-0.575
750680,-0.150,-0.660
750681,-0.075,-0.680
750682,0.010,-0.655
750683,0.045,-0.630
750684,0.145,-0.615
750685,0.210,-0.635
750686,0.225,-0.630
750687,0.225,-0.625
750688,0.245,-0.620
750689,0.280,-0.640
750690,0.275,-0.610
750691,0.280,-0.590
750692,0.295,-0.600
750693,0.310,-0.595
750694,0.310,-0.595
750695,0.290,-0.555
750696,0.315,-0.570
750697,0.285,-0.565
750698,0.285,-0.575
750699,0.305,-0.555
750700,0.315,-0.550
750701,0.295,-0.550
750702,0.315,-0.560
750703,0.335,-0.550
750704,0.325,-0.540
750705,0.335,-0.560
750706,0.370,-0.555
750707,0.370,-0.560
750708,0.365,-0.560
750709,0.400,-0.580
750710,0.380,-0.610
750711,0.395,-0.640
750712,0.390,-0.640
750713,0.410,-0.645
750714,0.415,-0.680
750715,0.435,-0.690
750716,0.430,-0.705
750717,0.445,-0.720
750718,0.455,-0.730
750719,0.460,-0.775
750720,0.460,-0.765
750721,0.490,-0.770
750722,0.510,-0.790
750723,0.480,-0.770
750724,0.465,-0.745
750725,0.470,-0.710
750726,0.475,-0.690
750727,0.440,-0.650
750728,0.430,-0.625
750729,0.425,-0.600
750730,0.420,-0.560
750731,0.420,-0.500
750732,0.395,-0.475
750733,0.370,-0.450
750734,0.360,-0.395
750735,0.340,-0.415
750736,0.310,-0.390
750737,0.280,-0.380
750738,0.295,-0.365
750739,0.265,-0.385
750740,0.225,-0.400
750741,0.235,-0.380
750742,0.200,-0.380
750743,0.195,-0.410
750744,0.170,-0.395
750745,0.180,-0.390
750746,0.175,-0.390
750747,0.170,-0.430
750748,0.155,-0.440
750749,0.135,-0.440
750750,0.120,-0.440
750751,0.120,-0.420
750752,0.115,-0.435
750753,0.115,-0.435
750754,0.125,-0.435
750755,0.130,-0.440
750756,0.110,-0.445
750757,0.130,-0.450
750758,0.140,-0.465
750759,0.125,-0.460
750760,0.120,-0.465
750761,0.115,-0.470
750762,0.110,-0.465
750763,0.105,-0.460
750764,0.105,-0.465
750765,0.130,-0.495
750766,0.130,-0.495
750767,0.130,-0.480
750768,0.110,-0.485
750769,0.100,-0.495
750770,0.110,-0.485
750771,0.130,-0.485
750772,0.115,-0.505
750773,0.120,-0.500
750774,0.130,-0.505
750775,0.100,-0.505
750776,0.125,-0.530
750777,0.105,-0.510
750778,0.105,-0.520
750779,0.095,-0.500
750780,0.105,-0.500
750781,0.095,-0.515
750782,0.105,-0.505
750783,0.120,-0.500
750784,0.105,-0.515
750785,0.110,-0.510
750786,0.085,-0.510
750787,0.105,-0.520
750788,0.080,-0.520
750789,0.105,-0.500
750790,0.075,-0.500
750791,0.100,-0.490
750792,0.095,-0.490
750793,0.075,-0.495
750794,0.075,-0.495
750795,0.075,-0.475
750796,0.070,-0.480
750797,0.075,-0.495
750798,0.075,-0.485
750799,0.055,-0.465
750800,0.080,-0.475
750801,0.080,-0.495
750802,0.075,-0.480
750803,0.080,-0.475
750804,0.065,-0.475
750805,0.085,-0.480
750806,0.075,-0.460
750807,0.055,-0.465
750808,0.060,-0.470
750809,0.060,-0.465
750810,0.080,-0.465
750811,0.055,-0.455
750812,0.065,-0.465
750813,0.055,-0.465
750814,0.065,-0.465
750815,0.080,-0.445
750816,0.080,-0.450
750817,0.080,-0.445
750818,0.065,-0.430
750819,0.075,-0.390
750820,0.075,-0.335
750821,0.085,-0.350
750822,0.100,-0.330
750823,0.090,-0.285
750824,0.100,-0.265
750825,0.120,-0.235
750826,0.145,-0.260
750827,0.160,-0.255
750828,0.185,-0.245
750829,0.165,-0.300
750830,0.150,-0.335
750831,0.170,-0.355
750832,0.140,-0.330
750833,0.135,-0.360
750834,0.125,-0.385
750835,0.130,-0.385
750836,0.105,-0.395
750837,0.095,-0.410
750838,0.070,-0.450
750839,0.090,-0.490
750840,0.080,-0.490
750841,0.090,-0.490
750842,0.075,-0.500
750843,0.060,-0.500
750844,0.085,-0.495
750845,0.065,-0.495
750846,0.070,-0.485
750847,0.075,-0.500
750848,0.085,-0.485
750849,0.085,-0.470
750850,0.060,-0.485
750851,0.085,-0.505
750852,0.100,-0.480
750853,0.080,-0.480
750854,0.080,-0.475
750855,0.075,-0.490
750856,0.085,-0.480
750857,0.075,-0.480
750858,0.075,-0.470
750859,0.105,-0.490
750860,0.100,-0.480
750861,0.085,-0.455
750862,0.085,-0.420
750863,0.100,-0.365
750864,0.100,-0.240
750865,0.105,-0.075
750866,0.095,0.200
750867,0.150,0.525
750868,0.115,0.830
750869,0.025,1.040
750870,-0.135,1.300
750871,-0.420,1.590
750872,-0.695,1.800
750873,-0.965,1.795
750874,-1.085,1.760
750875,-1.095,1.650
750876,-1.015,1.480
750877,-0.945,1.295
750878,-0.905,1.140
750879,-0.870,1.000
750880,-0.785,0.915
750881,-0.720,0.970
750882,-0.705,1.210
750883,-0.675,1.500
750884,-0.625,1.600
750885,-0.565,1.265
750886,-0.515,0.630
750887,-0.465,-0.015
750888,-0.400,-0.425
750889,-0.350,-0.615
750890,-0.260,-0.675
750891,-0.205,-0.660
750892,-0.120,-0.685
750893,-0.035,-0.680
750894,0.040,-0.645
750895,0.120,-0.605
750896,0.190,-0.595
750897,0.240,-0.625
750898,0.235,-0.615
750899,0.290,-0.615
750900,0.295,-0.595
750901,0.305,-0.575
750902,0.290,-0.585
750903,0.330,-0.590
750904,0.320,-0.570
750905,0.350,-0.565
750906,0.330,-0.580
750907,0.330,-0.565
750908,0.330,-0.565
750909,0.360,-0.555
750910,0.330,-0.565
750911,0.335,-0.545
750912,0.345,-0.530
750913,0.335,-0.530
750914,0.345,-0.555
750915,0.345,-0.525
750916,0.350,-0.540
750917,0.370,-0.555
750918,0.375,-0.555
750919,0.375,-0.570
750920,0.385,-0.595
750921,0.420,-0.595
750922,0.435,-0.615
750923,0.460,-0.640
750924,0.440,-0.630
750925,0.460,-0.655
750926,0.490,-0.665
750927,0.480,-0.710
750928,0.485,-0.695
750929,0.515,-0.710
750930,0.520,-0.745
750931,0.535,-0.750
750932,0.540,-0.765
750933,0.565,-0.735
750934,0.555,-0.755
750935,0.555,-0.745
750936,0.555,-0.730
750937,0.560,-0.690
750938,0.550,-0.680
750939,0.515,-0.650
750940,0.510,-0.590
750941,0.485,-0.540
750942,0.490,-0.505
750943,0.460,-0.485
750944,0.430,-0.460
750945,0.425,-0.410
750946,0.400,-0.400
750947,0.385,-0.395
750948,0.375,-0.395
750949,0.345,-0.385
750950,0.330,-0.395
750951,0.280,-0.395
750952,0.255,-0.400
750953,0.230,-0.400
750954,0.250,-0.400
750955,0.210,-0.405
750956,0.210,-0.430
750957,0.195,-0.425
750958,0.175,-0.430
750959,0.170,-0.440
750960,0.155,-0.430
750961,0.160,-0.445
750962,0.160,-0.455
750963,0.165,-0.440
750964,0.155,-0.435
750965,0.150,-0.460
750966,0.155,-0.450
750967,0.180,-0.475
750968,0.180,-0.465
750969,0.195,-0.500
750970,0.190,-0.490
750971,0.155,-0.475
750972,0.175,-0.485
750973,0.170,-0.505
750974,0.165,-0.490
750975,0.165,-0.480
750976,0.190,-0.490
750977,0.160,-0.535
750978,0.165,-0.505
750979,0.170,-0.500
750980,0.180,-0.510
750981,0.145,-0.540
750982,0.155,-0.530
750983,0.160,-0.515
750984,0.155,-0.525
750985,0.175,-0.535
750986,0.160,-0.520
750987,0.175,-0.530
750988,0.140,-0.545
750989,0.155,-0.540
750990,0.135,-0.520
750991,0.160,-0.540
750992,0.150,-0.535
750993,0.150,-0.525
750994,0.165,-0.535
750995,0.155,-0.530
750996,0.155,-0.540
750997,0.150,-0.520
750998,0.150,-0.525
750999,0.155,-0.520
751000,0.160,-0.520
751001,0.140,-0.505
751002,0.165,-0.520
751003,0.145,-0.530
751004,0.140,-0.520
751005,0.130,-0.530
751006,0.130,-0.510
751007,0.155,-0.500
751008,0.160,-0.495
751009,0.145,-0.520
751010,0.150,-0.505
751011,0.150,-0.515
751012,0.155,-0.520
751013,0.140,-0.505
751014,0.135,-0.500
751015,0.135,-0.505
751016,0.150,-0.505
751017,0.150,-0.510
751018,0.155,-0.495
751019,0.125,-0.505
751020,0.165,-0.510
751021,0.175,-0.505
751022,0.140,-0.490
751023,0.140,-0.495
751024,0.175,-0.495
751025,0.155,-0.495
751026,0.160,-0.485
751027,0.140,-0.480
751028,0.140,-0.465
751029,0.155,-0.410
751030,0.150,-0.360
751031,0.150,-0.370
751032,0.180,-0.355
751033,0.220,-0.315
751034,0.230,-0.295
751035,0.210,-0.265
751036,0.250,-0.290
751037,0.250,-0.270
751038,0.265,-0.315
751039,0.230,-0.345
751040,0.230,-0.375
751041,0.230,-0.370
751042,0.215,-0.420
751043,0.205,-0.425
751044,0.185,-0.420
751045,0.205,-0.440
751046,0.160,-0.455
751047,0.145,-0.485
751048,0.125,-0.525
751049,0.130,-0.545
751050,0.140,-0.565
751051,0.130,-0.545
751052,0.120,-0.550
751053,0.125,-0.550
751054,0.140,-0.550
751055,0.115,-0.525
751056,0.130,-0.550
751057,0.140,-0.565
751058,0.135,-0.565
751059,0.110,-0.545
751060,0.115,-0.545
751061,0.145,-0.555
751062,0.125,-0.560
751063,0.130,-0.530
751064,0.120,-0.525
751065,0.125,-0.530
751066,0.120,-0.530
751067,0.115,-0.525
751068,0.130,-0.520
751069,0.100,-0.500
751070,0.135,-0.495
751071,0.135,-0.465
751072,0.120,-0.390
751073,0.130,-0.270
751074,0.140,-0.135
751075,0.135,0.120
751076,0.170,0.425
751077,0.190,0.715
751078,0.110,0.910
751079,-0.080,1.170
751080,-0.315,1.445
751081,-0.650,1.695
751082,-0.875,1.795
751083,-1.075,1.775
751084,-1.110,1.700
751085,-1.065,1.540
751086,-0.975,1.340
751087,-0.895,1.170
751088,-0.865,0.965
751089,-0.800,0.835
751090,-0.740,0.805
751091,-0.675,0.940
751092,-0.635,1.190
751093,-0.600,1.385
751094,-0.560,1.250
751095,-0.495,0.725
751096,-0.430,0.070
751097,-0.390,-0.405
751098,-0.340,-0.675
751099,-0.240,-0.760
751100,-0.180,-0.745
751101,-0.125,-0.695
751102,-0.015,-0.695
751103,0.070,-0.680
751104,0.165,-0.660
751105,0.210,-0.615
751106,0.270,-0.615
751107,0.290,-0.615
751108,0.315,-0.620
751109,0.330,-0.590
751110,0.325,-0.575
751111,0.340,-0.590
751112,0.340,-0.590
751113,0.350,-0.570
751114,0.350,-0.555
751115,0.355,-0.555
751116,0.355,-0.560
751117,0.360,-0.560
751118,0.375,-0.540
751119,0.395,-0.555
751120,0.375,-0.555
751121,0.385,-0.550
751122,0.380,-0.535
751123,0.400,-0.550
751124,0.425,-0.560
751125,0.420,-0.555
751126,0.415,-0.555
751127,0.410,-0.560
751128,0.415,-0.585
751129,0.445,-0.585
751130,0.465,-0.575
751131,0.495,-0.585
751132,0.520,-0.625
751133,0.525,-0.630
751134,0.520,-0.650
751135,0.545,-0.640
751136,0.595,-0.665
751137,0.580,-0.700
751138,0.565,-0.705
751139,0.580,-0.720
751140,0.605,-0.735
751141,0.615,-0.770
751142,0.620,-0.770
751143,0.600,-0.760
751144,0.605,-0.745
751145,0.630,-0.745
751146,0.615,-0.715
751147,0.620,-0.715
751148,0.600,-0.670
751149,0.610,-0.655
751150,0.550,-0.590
751151,0.535,-0.555
751152,0.535,-0.520
751153,0.500,-0.475
751154,0.490,-0.465
751155,0.465,-0.440
751156,0.460,-0.420
751157,0.450,-0.380
751158,0.370,-0.400
751159,0.365,-0.400
751160,0.360,-0.375
751161,0.330,-0.405
751162,0.315,-0.405
751163,0.295,-0.400
751164,0.275,-0.410
751165,0.275,-0.405
751166,0.235,-0.410
751167,0.210,-0.425
751168,0.205,-0.425
751169,0.205,-0.425
751170,0.210,-0.445
751171,0.195,-0.460
751172,0.200,-0.450
751173,0.195,-0.470
751174,0.200,-0.450
751175,0.200,-0.470
751176,0.195,-0.470
751177,0.225,-0.455
751178,0.215,-0.475
751179,0.215,-0.475
751180,0.210,-0.485
751181,0.195,-0.480
751182,0.195,-0.480
751183,0.185,-0.500
751184,0.185,-0.500
751185,0.210,-0.500
751186,0.220,-0.520
751187,0.205,-0.505
751188,0.205,-0.515
751189,0.220,-0.520
751190,0.225,-0.510
751191,0.215,-0.520
751192,0.200,-0.530
751193,0.205,-0.535
751194,0.220,-0.525
751195,0.215,-0.535
751196,0.200,-0.545
751197,0.185,-0.525
751198,0.205,-0.545
751199,0.215,-0.510
751200,0.200,-0.540
751201,0.190,-0.545
751202,0.190,-0.520
751203,0.155,-0.530
751204,0.170,-0.520
751205,0.165,-0.530
751206,0.170,-0.535
751207,0.165,-0.520
751208,0.160,-0.535
751209,0.175,-0.545
751210,0.180,-0.530
751211,0.165,-0.525
751212,0.140,-0.540
751213,0.145,-0.535
751214,0.155,-0.530
751215,0.160,-0.530
751216,0.180,-0.535
751217,0.185,-0.520
751218,0.180,-0.515
751219,0.195,-0.530
751220,0.150,-0.505
751221,0.140,-0.510
751222,0.180,-0.520
751223,0.165,-0.485
751224,0.175,-0.515
751225,0.165,-0.500
751226,0.155,-0.530
751227,0.165,-0.520
751228,0.160,-0.495
751229,0.155,-0.505
751230,0.170,-0.520
751231,0.185,-0.495
751232,0.170,-0.500
751233,0.140,-0.490
751234,0.160,-0.490
751235,0.160,-0.495
751236,0.175,-0.495
751237,0.185,-0.505
751238,0.150,-0.485
751239,0.165,-0.450
751240,0.160,-0.400
751241,0.160,-0.375
751242,0.155,-0.370
751243,0.180,-0.370
751244,0.175,-0.320
751245,0.180,-0.285
751246,0.205,-0.250
751247,0.235,-0.270
751248,0.255,-0.285
751249,0.235,-0.310
751250,0.250,-0.340
751251,0.215,-0.365
751252,0.180,-0.395
751253,0.190,-0.415
751254,0.175,-0.410
751255,0.155,-0.430
751256,0.155,-0.440
751257,0.130,-0.460
751258,0.105,-0.480
751259,0.120,-0.535
751260,0.120,-0.555
751261,0.125,-0.560
751262,0.115,-0.560
751263,0.140,-0.555
751264,0.120,-0.570
751265,0.150,-0.565
751266,0.125,-0.570
751267,0.110,-0.565
751268,0.145,-0.560
751269,0.120,-0.565
751270,0.125,-0.570
751271,0.120,-0.555
751272,0.125,-0.570
751273,0.095,-0.570
751274,0.095,-0.550
751275,0.110,-0.565
751276,0.115,-0.570
751277,0.095,-0.545
751278,0.095,-0.550
751279,0.085,-0.535
751280,0.105,-0.535
751281,0.115,-0.535
751282,0.095,-0.490
751283,0.100,-0.390
751284,0.100,-0.270
751285,0.120,-0.095
751286,0.135,0.170
751287,0.165,0.500
751288,0.165,0.790
751289,0.065,0.975
751290,-0.100,1.220
751291,-0.415,1.520
751292,-0.720,1.740
751293,-0.945,1.805
751294,-1.080,1.795
751295,-1.100,1.685
751296,-1.035,1.515
751297,-0.925,1.300
751298,-0.875,1.085
751299,-0.840,0.910
751300,-0.795,0.780
751301,-0.705,0.810
751302,-0.680,0.995
751303,-0.640,1.265
751304,-0.605,1.420
751305,-0.550,1.135
751306,-0.465,0.505
751307,-0.415,-0.160
751308,-0.380,-0.565
751309,-0.345,-0.795
751310,-0.265,-0.815
751311,-0.190,-0.790
751312,-0.090,-0.765
751313,-0.005,-0.770
751314,0.085,-0.740
751315,0.165,-0.685
751316,0.210,-0.680
751317,0.260,-0.660
751318,0.285,-0.670
751319,0.320,-0.670
751320,0.300,-0.655
751321,0.330,-0.640
751322,0.325,-0.665
751323,0.335,-0.620
751324,0.340,-0.605
751325,0.340,-0.610
751326,0.335,-0.620
751327,0.355,-0.610
751328,0.380,-0.595
751329,0.375,-0.590
751330,0.365,-0.595
751331,0.365,-0.590
751332,0.355,-0.580
751333,0.400,-0.580
751334,0.420,-0.580
751335,0.405,-0.585
751336,0.425,-0.610
751337,0.420,-0.590
751338,0.445,-0.605
751339,0.460,-0.615
751340,0.445,-0.630
751341,0.470,-0.620
751342,0.515,-0.655
751343,0.490,-0.670
751344,0.520,-0.690
751345,0.515,-0.695
751346,0.535,-0.725
751347,0.555,-0.740
751348,0.545,-0.750
751349,0.580,-0.735
751350,0.585,-0.755
751351,0.610,-0.775
751352,0.590,-0.785
751353,0.600,-0.805
751354,0.600,-0.780
751355,0.600,-0.770
751356,0.595,-0.740
751357,0.585,-0.730
751358,0.580,-0.695
751359,0.555,-0.665
751360,0.540,-0.630
751361,0.540,-0.575
751362,0.515,-0.525
751363,0.510,-0.470
751364,0.465,-0.460
751365,0.460,-0.435
751366,0.400,-0.400
751367,0.385,-0.390
751368,0.370,-0.385
751369,0.345,-0.385
751370,0.325,-0.400
751371,0.300,-0.410
751372,0.275,-0.420
751373,0.265,-0.425
751374,0.270,-0.440
751375,0.250,-0.450
751376,0.245,-0.470
751377,0.185,-0.480
751378,0.195,-0.460
751379,0.215,-0.465
751380,0.205,-0.475
751381,0.165,-0.465
751382,0.175,-0.475
751383,0.160,-0.475
751384,0.165,-0.495
751385,0.155,-0.495
751386,0.165,-0.500
751387,0.170,-0.510
751388,0.155,-0.495
751389,0.135,-0.500
751390,0.155,-0.505
751391,0.170,-0.510
751392,0.165,-0.530
751393,0.135,-0.510
751394,0.155,-0.525
751395,0.155,-0.540
751396,0.175,-0.525
751397,0.155,-0.540
751398,0.160,-0.520
751399,0.155,-0.550
751400,0.160,-0.555
751401,0.165,-0.575
751402,0.160,-0.555
751403,0.185,-0.550
751404,0.170,-0.560
751405,0.150,-0.565
751406,0.170,-0.555
751407,0.165,-0.565
751408,0.150,-0.550
751409,0.155,-0.560
751410,0.150,-0.550
751411,0.180,-0.550
751412,0.135,-0.560
751413,0.150,-0.555
751414,0.145,-0.555
751415,0.145,-0.580
751416,0.160,-0.575
751417,0.155,-0.580
751418,0.150,-0.555
751419,0.175,-0.540
751420,0.170,-0.555
751421,0.150,-0.555
751422,0.160,-0.540
751423,0.155,-0.545
751424,0.175,-0.540
751425,0.160,-0.530
751426,0.165,-0.540
751427,0.150,-0.520
751428,0.140,-0.535
751429,0.120,-0.530
751430,0.130,-0.540
751431,0.140,-0.525
751432,0.125,-0.515
751433,0.130,-0.520
751434,0.140,-0.530
751435,0.150,-0.530
751436,0.140,-0.515
751437,0.110,-0.500
751438,0.125,-0.515
751439,0.105,-0.505
751440,0.130,-0.525
751441,0.085,-0.530
751442,0.120,-0.520
751443,0.115,-0.490
751444,0.110,-0.495
751445,0.090,-0.495
751446,0.090,-0.480
751447,0.110,-0.450
751448,0.110,-0.410
751449,0.100,-0.395
751450,0.105,-0.400
751451,0.135,-0.345
751452,0.145,-0.320
751453,0.165,-0.305
751454,0.180,-0.310
751455,0.185,-0.290
751456,0.160,-0.280
751457,0.180,-0.340
751458,0.200,-0.370
751459,0.180,-0.395
751460,0.125,-0.395
751461,0.125,-0.440
751462,0.150,-0.450
751463,0.130,-0.460
751464,0.110,-0.450
751465,0.090,-0.485
751466,0.080,-0.535
751467,0.085,-0.550
751468,0.080,-0.560
751469,0.080,-0.560
751470,0.060,-0.600
751471,0.065,-0.595
751472,0.070,-0.580
751473,0.070,-0.590
751474,0.075,-0.595
751475,0.075,-0.575
751476,0.055,-0.555
751477,0.045,-0.555
751478,0.075,-0.570
751479,0.080,-0.570
751480,0.050,-0.570
751481,0.050,-0.575
751482,0.050,-0.560
751483,0.040,-0.570
751484,0.035,-0.565
751485,0.050,-0.545
751486,0.045,-0.550
751487,0.080,-0.560
751488,0.055,-0.520
751489,0.045,-0.470
751490,0.045,-0.370
751491,0.040,-0.195
751492,0.055,0.095
751493,0.095,0.460
751494,0.105,0.805
751495,0.005,1.090
751496,-0.160,1.385
751497,-0.450,1.665
751498,-0.780,1.915
751499,-1.030,1.985
751500,-1.185,1.940
751501,-1.150,1.845
751502,-1.085,1.695
751503,-0.990,1.485
751504,-0.945,1.320
751505,-0.930,1.175
751506,-0.875,1.100
751507,-0.795,1.150
751508,-0.760,1.395
751509,-0.725,1.690
751510,-0.680,1.810
751511,-0.610,1.490
751512,-0.555,0.885
751513,-0.495,0.250
751514,-0.430,-0.200
751515,-0.335,-0.470
751516,-0.280,-0.590
751517,-0.220,-0.710
751518,-0.100,-0.780
751519,-0.040,-0.740
751520,0.035,-0.740
751521,0.120,-0.745
751522,0.155,-0.745
751523,0.195,-0.765
751524,0.230,-0.745
751525,0.235,-0.745
751526,0.255,-0.755
751527,0.275,-0.735
751528,0.260,-0.700
751529,0.290,-0.705
751530,0.300,-0.710
751531,0.325,-0.705
751532,0.315,-0.705
751533,0.310,-0.685
751534,0.310,-0.680
751535,0.310,-0.680
751536,0.315,-0.670
751537,0.325,-0.655
751538,0.330,-0.645
751539,0.350,-0.645
751540,0.345,-0.645
751541,0.355,-0.645
751542,0.395,-0.665
751543,0.395,-0.655
751544,0.380,-0.655
751545,0.405,-0.675
751546,0.410,-0.705
751547,0.430,-0.700
751548,0.440,-0.725
751549,0.440,-0.745
751550,0.465,-0.770
751551,0.465,-0.775
751552,0.490,-0.795
751553,0.480,-0.805
751554,0.505,-0.840
751555,0.500,-0.855
751556,0.515,-0.875
751557,0.500,-0.865
751558,0.525,-0.875
751559,0.545,-0.840
751560,0.525,-0.800
751561,0.520,-0.795
751562,0.505,-0.760
751563,0.460,-0.720
751564,0.460,-0.675
751565,0.450,-0.640
751566,0.430,-0.590
751567,0.390,-0.555
751568,0.340,-0.520
751569,0.330,-0.470
751570,0.310,-0.480
751571,0.290,-0.455
751572,0.240,-0.445
751573,0.265,-0.445
751574,0.215,-0.455
751575,0.210,-0.465
751576,0.150,-0.465
751577,0.155,-0.460
751578,0.140,-0.475
751579,0.135,-0.485
751580,0.110,-0.485
751581,0.110,-0.475
751582,0.085,-0.490
751583,0.110,-0.480
751584,0.085,-0.470
751585,0.090,-0.485
751586,0.100,-0.490
751587,0.075,-0.510
751588,0.080,-0.500
751589,0.090,-0.495
751590,0.095,-0.490
751591,0.120,-0.510
751592,0.130,-0.505
751593,0.110,-0.515
751594,0.115,-0.510
751595,0.120,-0.500
751596,0.105,-0.500
751597,0.100,-0.500
751598,0.115,-0.515
751599,0.115,-0.530
751600,0.130,-0.500
751601,0.110,-0.515
751602,0.125,-0.525
751603,0.105,-0.520
751604,0.090,-0.520
751605,0.105,-0.525
751606,0.135,-0.530
751607,0.100,-0.545
751608,0.095,-0.530
751609,0.115,-0.510
751610,0.115,-0.545
751611,0.110,-0.545
751612,0.090,-0.540
751613,0.120,-0.540
751614,0.115,-0.530
751615,0.110,-0.545
751616,0.120,-0.530
751617,0.105,-0.510
751618,0.110,-0.515
751619,0.115,-0.535
751620,0.110,-0.525
751621,0.125,-0.530
751622,0.115,-0.510
751623,0.105,-0.520
751624,0.110,-0.520
751625,0.130,-0.510
751626,0.120,-0.500
751627,0.135,-0.505
751628,0.120,-0.525
751629,0.120,-0.510
751630,0.135,-0.515
751631,0.115,-0.490
751632,0.150,-0.515
751633,0.135,-0.500
751634,0.110,-0.490
751635,0.100,-0.490
751636,0.115,-0.500
751637,0.150,-0.495
751638,0.125,-0.485
751639,0.120,-0.470
751640,0.105,-0.490
751641,0.110,-0.470
751642,0.125,-0.490
751643,0.080,-0.475
751644,0.105,-0.490
751645,0.115,-0.475
751646,0.120,-0.440
751647,0.120,-0.440
751648,0.135,-0.420
751649,0.130,-0.380
751650,0.130,-0.350
751651,0.145,-0.345
751652,0.165,-0.320
751653,0.150,-0.300
751654,0.165,-0.295
751655,0.180,-0.290
751656,0.200,-0.290
751657,0.210,-0.325
751658,0.200,-0.365
751659,0.165,-0.355
751660,0.170,-0.375
751661,0.170,-0.400
751662,0.135,-0.420
751663,0.145,-0.420
751664,0.110,-0.415
751665,0.100,-0.435
751666,0.090,-0.470
751667,0.085,-0.525
751668,0.075,-0.555
751669,0.100,-0.530
751670,0.095,-0.535
751671,0.075,-0.510
751672,0.080,-0.540
751673,0.090,-0.530
751674,0.080,-0.525
751675,0.055,-0.520
751676,0.075,-0.540
751677,0.095,-0.510
751678,0.065,-0.510
751679,0.080,-0.500
751680,0.080,-0.515
751681,0.090,-0.535
751682,0.085,-0.505
751683,0.090,-0.520
751684,0.100,-0.520
751685,0.085,-0.510
751686,0.085,-0.480
751687,0.085,-0.500
751688,0.070,-0.490
751689,0.070,-0.430
751690,0.070,-0.350
751691,0.060,-0.220
751692,0.060,-0.065
751693,0.090,0.210
751694,0.145,0.490
751695,0.065,0.725
751696,-0.075,0.905
751697,-0.265,1.140
751698,-0.610,1.375
751699,-0.900,1.520
751700,-1.115,1.515
751701,-1.150,1.450
751702,-1.135,1.380
751703,-1.045,1.205
751704,-0.960,1.055
751705,-0.910,0.905
751706,-0.880,0.755
751707,-0.805,0.705
751708,-0.735,0.825
751709,-0.700,1.060
751710,-0.660,1.275
751711,-0.620,1.220
751712,-0.550,0.745
751713,-0.470,0.115
751714,-0.435,-0.365
751715,-0.385,-0.605
751716,-0.310,-0.690
751717,-0.240,-0.710
751718,-0.165,-0.715
751719,-0.080,-0.700
751720,0.000,-0.675
751721,0.105,-0.650
751722,0.150,-0.640
751723,0.190,-0.640
751724,0.195,-0.640
751725,0.250,-0.620
751726,0.280,-0.620
751727,0.295,-0.610
751728,0.285,-0.605
751729,0.290,-0.605
751730,0.315,-0.610
751731,0.315,-0.610
751732,0.315,-0.590
751733,0.325,-0.600
751734,0.340,-0.600
751735,0.335,-0.605
751736,0.330,-0.590
751737,0.365,-0.595
751738,0.380,-0.595
751739,0.360,-0.600
751740,0.385,-0.600
751741,0.380,-0.580
751742,0.410,-0.600
751743,0.420,-0.600
751744,0.405,-0.610
751745,0.415,-0.620
751746,0.425,-0.625
751747,0.430,-0.640
751748,0.455,-0.655
751749,0.485,-0.655
751750,0.510,-0.670
751751,0.515,-0.680
751752,0.535,-0.685
751753,0.575,-0.680
751754,0.570,-0.715
751755,0.595,-0.735
751756,0.605,-0.740
751757,0.615,-0.745
751758,0.600,-0.770
751759,0.605,-0.780
751760,0.610,-0.755
751761,0.605,-0.745
751762,0.600,-0.720
751763,0.605,-0.720
751764,0.560,-0.685
751765,0.560,-0.630
751766,0.555,-0.580
751767,0.530,-0.570
751768,0.490,-0.540
751769,0.470,-0.485
751770,0.425,-0.475
751771,0.385,-0.445
751772,0.365,-0.430
751773,0.335,-0.425
751774,0.335,-0.420
751775,0.290,-0.425
751776,0.290,-0.410
751777,0.260,-0.420
751778,0.255,-0.420
751779,0.260,-0.440
751780,0.225,-0.445
751781,0.205,-0.440
751782,0.195,-0.455
751783,0.170,-0.455
751784,0.185,-0.445
751785,0.160,-0.450
751786,0.155,-0.465
751787,0.170,-0.480
751788,0.175,-0.460
751789,0.190,-0.475
751790,0.200,-0.485
751791,0.180,-0.490
751792,0.175,-0.495
751793,0.165,-0.480
751794,0.155,-0.480
751795,0.155,-0.495
751796,0.150,-0.515
751797,0.155,-0.505
751798,0.145,-0.490
751799,0.140,-0.500
751800,0.140,-0.530
751801,0.170,-0.520
751802,0.180,-0.495
751803,0.155,-0.535
751804,0.160,-0.530
751805,0.160,-0.530
751806,0.155,-0.520
751807,0.170,-0.550
751808,0.160,-0.525
751809,0.145,-0.520
751810,0.180,-0.520
751811,0.165,-0.520
751812,0.180,-0.535
751813,0.175,-0.530
751814,0.215,-0.515
751815,0.180,-0.525
751816,0.160,-0.545
751817,0.180,-0.520
751818,0.175,-0.500
751819,0.190,-0.525
751820,0.170,-0.540
751821,0.170,-0.530
751822,0.165,-0.530
751823,0.165,-0.540
751824,0.170,-0.540
751825,0.150,-0.525
751826,0.150,-0.535
751827,0.160,-0.505
751828,0.155,-0.500
751829,0.140,-0.505
751830,0.160,-0.505
751831,0.175,-0.510
751832,0.150,-0.505
751833,0.145,-0.525
751834,0.135,-0.515
751835,0.145,-0.515
751836,0.140,-0.515
751837,0.165,-0.500
751838,0.120,-0.495
751839,0.115,-0.495
751840,0.155,-0.460
751841,0.135,-0.485
751842,0.140,-0.485
751843,0.130,-0.500
751844,0.155,-0.485
751845,0.125,-0.480
751846,0.170,-0.465
751847,0.195,-0.485
751848,0.150,-0.475
751849,0.155,-0.455
751850,0.155,-0.465
751851,0.165,-0.460
751852,0.165,-0.455
751853,0.175,-0.385
751854,0.170,-0.375
751855,0.170,-0.355
751856,0.205,-0.325
751857,0.215,-0.285
751858,0.225,-0.270
751859,0.235,-0.275
751860,0.255,-0.265
751861,0.260,-0.260
751862,0.255,-0.305
751863,0.265,-0.345
751864,0.250,-0.350
751865,0.215,-0.355
751866,0.210,-0.385
751867,0.195,-0.395
751868,0.210,-0.410
751869,0.195,-0.405
751870,0.155,-0.425
751871,0.140,-0.445
751872,0.150,-0.485
751873,0.155,-0.505
751874,0.155,-0.510
751875,0.140,-0.510
751876,0.155,-0.515
751877,0.135,-0.530
751878,0.140,-0.510
751879,0.120,-0.505
751880,0.130,-0.515
751881,0.135,-0.520
751882,0.135,-0.510
751883,0.135,-0.525
751884,0.145,-0.520
751885,0.130,-0.510
751886,0.135,-0.520
751887,0.120,-0.500
751888,0.115,-0.510
751889,0.145,-0.505
751890,0.110,-0.510
751891,0.115,-0.480
751892,0.095,-0.480
751893,0.110,-0.505
751894,0.105,-0.485
751895,0.105,-0.425
751896,0.095,-0.385
751897,0.110,-0.270
751898,0.105,-0.120
751899,0.135,0.110
751900,0.165,0.370
751901,0.190,0.605
751902,0.075,0.780
751903,-0.085,0.985
751904,-0.375,1.250
751905,-0.670,1.445
751906,-0.925,1.510
751907,-1.050,1.465
751908,-1.095,1.375
751909,-1.015,1.240
751910,-0.960,1.075
751911,-0.900,0.930
751912,-0.865,0.765
751913,-0.810,0.650
751914,-0.735,0.635
751915,-0.695,0.795
751916,-0.660,1.040
751917,-0.615,1.215
751918,-0.575,1.030
751919,-0.495,0.515
751920,-0.465,-0.085
751921,-0.380,-0.480
751922,-0.320,-0.660
751923,-0.270,-0.750
751924,-0.190,-0.685
751925,-0.115,-0.690
751926,-0.040,-0.680
751927,0.070,-0.650
751928,0.140,-0.605
751929,0.185,-0.580
751930,0.245,-0.595
751931,0.265,-0.590
751932,0.305,-0.595
751933,0.300,-0.570
751934,0.325,-0.550
751935,0.345,-0.555
751936,0.345,-0.545
751937,0.365,-0.535
751938,0.360,-0.545
751939,0.375,-0.535
751940,0.365,-0.545
751941,0.370,-0.520
751942,0.375,-0.540
751943,0.355,-0.540
751944,0.375,-0.525
751945,0.380,-0.525
751946,0.405,-0.505
751947,0.390,-0.515
751948,0.425,-0.505
751949,0.435,-0.535
751950,0.455,-0.530
751951,0.470,-0.520
751952,0.480,-0.560
751953,0.475,-0.555
751954,0.470,-0.570
751955,0.485,-0.575
751956,0.490,-0.590
751957,0.515,-0.620
751958,0.515,-0.625
751959,0.535,-0.605
751960,0.570,-0.640
751961,0.585,-0.640
751962,0.570,-0.660
751963,0.575,-0.660
751964,0.590,-0.670
751965,0.610,-0.705
751966,0.580,-0.715
751967,0.575,-0.685
751968,0.605,-0.700
751969,0.595,-0.695
751970,0.580,-0.680
751971,0.560,-0.650
751972,0.560,-0.635
751973,0.540,-0.610
751974,0.525,-0.565
751975,0.495,-0.520
751976,0.495,-0.495
751977,0.475,-0.475
751978,0.440,-0.455
751979,0.425,-0.415
751980,0.430,-0.410
751981,0.410,-0.405
751982,0.385,-0.410
751983,0.360,-0.410
751984,0.320,-0.390
751985,0.290,-0.410
751986,0.265,-0.425
751987,0.245,-0.430
751988,0.230,-0.425
751989,0.240,-0.445
751990,0.225,-0.440
751991,0.200,-0.455
751992,0.180,-0.460
751993,0.165,-0.450
751994,0.190,-0.450
751995,0.175,-0.475
751996,0.165,-0.475
751997,0.200,-0.460
751998,0.195,-0.495
751999,0.180,-0.485
752000,0.155,-0.480
752001,0.170,-0.500
752002,0.170,-0.490
752003,0.180,-0.510
752004,0.175,-0.490
752005,0.175,-0.500
752006,0.175,-0.505
752007,0.180,-0.525
752008,0.165,-0.525
752009,0.190,-0.510
752010,0.185,-0.520
752011,0.195,-0.525
752012,0.195,-0.520
752013,0.185,-0.525
752014,0.180,-0.545
752015,0.170,-0.535
752016,0.185,-0.530
752017,0.195,-0.540
752018,0.180,-0.535
752019,0.180,-0.545
752020,0.170,-0.535
752021,0.190,-0.545
752022,0.180,-0.520
752023,0.180,-0.535
752024,0.190,-0.530
752025,0.170,-0.540
752026,0.160,-0.550
752027,0.170,-0.520
752028,0.185,-0.515
752029,0.190,-0.515
752030,0.190,-0.525
752031,0.205,-0.510
752032,0.190,-0.525
752033,0.195,-0.525
752034,0.175,-0.515
752035,0.200,-0.520
752036,0.200,-0.510
752037,0.180,-0.510
752038,0.175,-0.525
752039,0.175,-0.515
752040,0.195,-0.500
752041,0.180,-0.485
752042,0.170,-0.510
752043,0.205,-0.510
752044,0.190,-0.505
752045,0.200,-0.505
752046,0.180,-0.515
752047,0.190,-0.505
752048,0.170,-0.495
752049,0.205,-0.480
752050,0.160,-0.480
752051,0.175,-0.505
752052,0.170,-0.495
752053,0.180,-0.515
752054,0.180,-0.515
752055,0.180,-0.490
752056,0.185,-0.490
752057,0.190,-0.500
752058,0.175,-0.480
752059,0.195,-0.490
752060,0.200,-0.490
752061,0.200,-0.470
752062,0.190,-0.470
752063,0.190,-0.455
752064,0.210,-0.430
752065,0.175,-0.380
752066,0.190,-0.380
752067,0.190,-0.350
752068,0.220,-0.340
752069,0.240,-0.320
752070,0.250,-0.295
752071,0.235,-0.285
752072,0.250,-0.285
752073,0.280,-0.285
752074,0.275,-0.320
752075,0.290,-0.355
752076,0.275,-0.360
752077,0.260,-0.380
752078,0.240,-0.400
752079,0.240,-0.415
752080,0.225,-0.445
752081,0.210,-0.415
752082,0.205,-0.430
752083,0.185,-0.435
752084,0.170,-0.500
752085,0.185,-0.490
752086,0.195,-0.530
752087,0.165,-0.520
752088,0.185,-0.520
752089,0.160,-0.530
752090,0.170,-0.510
752091,0.155,-0.510
752092,0.170,-0.515
752093,0.175,-0.500
752094,0.195,-0.525
752095,0.195,-0.505
752096,0.165,-0.510
752097,0.180,-0.510
752098,0.165,-0.495
752099,0.160,-0.510
752100,0.155,-0.500
752101,0.150,-0.500
752102,0.150,-0.500
752103,0.175,-0.510
752104,0.190,-0.470
752105,0.170,-0.500
752106,0.195,-0.480
752107,0.190,-0.465
752108,0.175,-0.425
752109,0.180,-0.325
752110,0.170,-0.180
752111,0.185,0.000
752112,0.225,0.250
752113,0.230,0.545
752114,0.220,0.755
752115,0.090,0.910
752116,-0.095,1.140
752117,-0.405,1.385
752118,-0.680,1.570
752119,-0.900,1.600
752120,-1.045,1.545
752121,-1.045,1.460
752122,-0.995,1.300
752123,-0.935,1.135
752124,-0.850,0.970
752125,-0.845,0.790
752126,-0.800,0.675
752127,-0.715,0.635
752128,-0.645,0.785
752129,-0.630,1.035
752130,-0.595,1.240
752131,-0.540,1.150
752132,-0.465,0.715
752133,-0.440,0.095
752134,-0.360,-0.400
752135,-0.285,-0.660
752136,-0.235,-0.755
752137,-0.155,-0.740
752138,-0.090,-0.695
752139,-0.025,-0.695
752140,0.045,-0.670
752141,0.135,-0.610
752142,0.230,-0.605
752143,0.295,-0.600
752144,0.335,-0.610
752145,0.350,-0.625
752146,0.375,-0.595
752147,0.400,-0.570
752148,0.415,-0.570
752149,0.425,-0.575
752150,0.425,-0.555
752151,0.425,-0.555
752152,0.425,-0.550
752153,0.440,-0.540
752154,0.495,-0.530
752155,0.455,-0.535
752156,0.460,-0.515
752157,0.445,-0.535
752158,0.460,-0.550
752159,0.465,-0.535
752160,0.465,-0.530
752161,0.485,-0.530
752162,0.500,-0.555
752163,0.485,-0.550
752164,0.480,-0.565
752165,0.500,-0.560
752166,0.510,-0.565
752167,0.530,-0.585
752168,0.550,-0.585
752169,0.545,-0.595
752170,0.560,-0.630
752171,0.555,-0.625
752172,0.545,-0.635
752173,0.585,-0.645
752174,0.605,-0.660
752175,0.590,-0.670
752176,0.635,-0.680
752177,0.630,-0.695
752178,0.625,-0.705
752179,0.640,-0.735
752180,0.635,-0.730
752181,0.650,-0.710
752182,0.645,-0.700
752183,0.650,-0.685
752184,0.645,-0.665
752185,0.605,-0.625
752186,0.620,-0.605
752187,0.600,-0.575
752188,0.590,-0.540
752189,0.555,-0.490
752190,0.530,-0.460
752191,0.505,-0.445
752192,0.495,-0.425
752193,0.455,-0.370
752194,0.440,-0.380
752195,0.420,-0.375
752196,0.400,-0.390
752197,0.380,-0.390
752198,0.360,-0.370
752199,0.350,-0.405
752200,0.335,-0.380
752201,0.335,-0.405
752202,0.290,-0.420
752203,0.280,-0.420
752204,0.270,-0.440
752205,0.245,-0.440
752206,0.260,-0.440
752207,0.260,-0.445
752208,0.255,-0.455
752209,0.250,-0.470
752210,0.245,-0.470
752211,0.230,-0.470
752212,0.245,-0.465
752213,0.205,-0.480
752214,0.200,-0.480
752215,0.230,-0.470
752216,0.205,-0.485
752217,0.210,-0.510
752218,0.195,-0.495
752219,0.200,-0.480
752220,0.180,-0.500
752221,0.185,-0.515
752222,0.150,-0.525
752223,0.180,-0.500
752224,0.195,-0.500
752225,0.200,-0.515
752226,0.170,-0.515
752227,0.170,-0.505
752228,0.195,-0.530
752229,0.195,-0.540
752230,0.170,-0.530
752231,0.175,-0.525
752232,0.175,-0.535
752233,0.180,-0.525
752234,0.155,-0.540
752235,0.175,-0.540
752236,0.195,-0.550
752237,0.190,-0.560
752238,0.170,-0.555
752239,0.180,-0.550
752240,0.170,-0.555
752241,0.180,-0.545
752242,0.150,-0.545
752243,0.150,-0.545
752244,0.155,-0.530
752245,0.150,-0.555
752246,0.155,-0.540
752247,0.140,-0.550
752248,0.155,-0.555
752249,0.170,-0.535
752250,0.150,-0.535
752251,0.165,-0.530
752252,0.165,-0.530
752253,0.160,-0.510
752254,0.130,-0.525
752255,0.115,-0.510
752256,0.135,-0.505
752257,0.145,-0.525
752258,0.155,-0.500
752259,0.160,-0.520
752260,0.130,-0.515
752261,0.135,-0.515
752262,0.130,-0.520
752263,0.170,-0.510
752264,0.155,-0.510
752265,0.170,-0.505
752266,0.175,-0.510
752267,0.165,-0.500
752268,0.135,-0.515
752269,0.160,-0.500
752270,0.145,-0.515
752271,0.155,-0.485
752272,0.140,-0.520
752273,0.130,-0.505
752274,0.130,-0.525
752275,0.140,-0.515
752276,0.150,-0.500
752277,0.115,-0.485
752278,0.135,-0.450
752279,0.135,-0.425
752280,0.120,-0.410
752281,0.145,-0.385
752282,0.165,-0.350
752283,0.180,-0.320
752284,0.150,-0.320
752285,0.185,-0.295
752286,0.205,-0.305
752287,0.200,-0.300
752288,0.220,-0.330
752289,0.190,-0.365
752290,0.220,-0.370
752291,0.200,-0.385
752292,0.180,-0.410
752293,0.155,-0.455
752294,0.175,-0.455
752295,0.165,-0.450
752296,0.130,-0.475
752297,0.110,-0.505
752298,0.110,-0.535
752299,0.130,-0.550
752300,0.105,-0.535
752301,0.130,-0.565
752302,0.125,-0.560
752303,0.105,-0.545
752304,0.105,-0.555
752305,0.110,-0.555
752306,0.115,-0.560
752307,0.115,-0.565
752308,0.115,-0.560
752309,0.095,-0.555
752310,0.120,-0.560
752311,0.110,-0.520
752312,0.105,-0.530
752313,0.095,-0.550
752314,0.075,-0.550
752315,0.110,-0.555
752316,0.115,-0.545
752317,0.100,-0.520
752318,0.115,-0.515
752319,0.145,-0.520
752320,0.140,-0.495
752321,0.125,-0.455
752322,0.120,-0.375
752323,0.120,-0.235
752324,0.135,-0.060
752325,0.160,0.225
752326,0.200,0.550
752327,0.175,0.795
752328,0.080,1.010
752329,-0.105,1.250
752330,-0.375,1.500
752331,-0.650,1.685
752332,-0.860,1.695
752333,-0.960,1.625
752334,-0.915,1.525
752335,-0.850,1.335
752336,-0.790,1.140
752337,-0.725,0.955
752338,-0.690,0.785
752339,-0.595,0.705
752340,-0.555,0.750
752341,-0.520,0.985
752342,-0.515,1.240
752343,-0.440,1.355
752344,-0.400,1.050
752345,-0.380,0.455
752346,-0.315,-0.200
752347,-0.260,-0.625
752348,-0.210,-0.790
752349,-0.170,-0.820
752350,-0.115,-0.750
752351,-0.040,-0.715
752352,0.045,-0.710
752353,0.095,-0.660
752354,0.170,-0.610
752355,0.225,-0.635
752356,0.275,-0.635
752357,0.305,-0.625
752358,0.315,-0.605
752359,0.320,-0.590
752360,0.360,-0.595
752361,0.355,-0.585
752362,0.355,-0.570
752363,0.365,-0.560
752364,0.375,-0.565
752365,0.370,-0.540
752366,0.370,-0.550
752367,0.375,-0.535
752368,0.385,-0.530
752369,0.400,-0.585
752370,0.360,-0.560
752371,0.370,-0.545
752372,0.340,-0.550
752373,0.300,-0.555
752374,0.270,-0.570
752375,0.265,-0.565
752376,0.270,-0.585
752377,0.285,-0.590
752378,0.295,-0.585
752379,0.285,-0.590
752380,0.295,-0.605
752381,0.290,-0.635
752382,0.310,-0.640
752383,0.280,-0.640
752384,0.295,-0.650
752385,0.290,-0.685
752386,0.300,-0.710
752387,0.300,-0.705
752388,0.335,-0.715
752389,0.370,-0.720
752390,0.355,-0.740
752391,0.360,-0.740
752392,0.350,-0.750
752393,0.365,-0.740
752394,0.345,-0.740
752395,0.355,-0.695
752396,0.345,-0.685
752397,0.375,-0.650
752398,0.375,-0.625
752399,0.345,-0.575
752400,0.330,-0.540
752401,0.300,-0.510
752402,0.275,-0.480
752403,0.250,-0.450
752404,0.225,-0.420
752405,0.210,-0.390
752406,0.215,-0.380
752407,0.200,-0.380
752408,0.175,-0.385
752409,0.170,-0.390
752410,0.155,-0.405
752411,0.105,-0.405
752412,0.095,-0.420
752413,0.100,-0.410
752414,0.085,-0.425
752415,0.090,-0.435
752416,0.060,-0.435
752417,0.080,-0.440
752418,0.080,-0.445
752419,0.070,-0.440
752420,0.065,-0.445
752421,0.075,-0.440
752422,0.070,-0.455
752423,0.045,-0.460
752424,0.035,-0.460
752425,0.030,-0.455
752426,0.055,-0.470
752427,0.065,-0.475
752428,0.055,-0.475
752429,0.040,-0.490
752430,0.060,-0.490
752431,0.030,-0.500
752432,0.035,-0.500
752433,0.030,-0.490
752434,0.055,-0.490
752435,0.010,-0.510
752436,0.035,-0.500
752437,0.040,-0.480
752438,0.055,-0.510
752439,0.050,-0.525
752440,0.045,-0.525
752441,0.025,-0.500
752442,0.020,-0.510
752443,0.020,-0.520
752444,0.020,-0.530
752445,0.025,-0.515
752446,0.055,-0.515
752447,0.030,-0.535
752448,0.040,-0.530
752449,0.025,-0.520
752450,0.015,-0.515
752451,0.030,-0.550
752452,0.020,-0.545
752453,-0.010,-0.540
752454,0.015,-0.520
752455,0.025,-0.515
752456,0.005,-0.520
752457,0.010,-0.540
752458,0.015,-0.520
752459,0.005,-0.515
752460,-0.005,-0.535
752461,-0.005,-0.520
752462,-0.010,-0.525
752463,0.005,-0.530
752464,0.000,-0.535
752465,0.015,-0.520
752466,0.025,-0.510
752467,0.015,-0.530
752468,-0.015,-0.525
752469,-0.025,-0.535
752470,-0.025,-0.520
752471,-0.035,-0.535
752472,-0.030,-0.540
752473,-0.005,-0.530
752474,0.035,-0.530
752475,0.020,-0.495
752476,0.005,-0.525
752477,-0.010,-0.505
752478,0.000,-0.510
752479,-0.010,-0.510
752480,-0.020,-0.510
752481,-0.060,-0.520
752482,-0.040,-0.490
752483,-0.010,-0.505
752484,-0.020,-0.495
752485,-0.035,-0.485
752486,0.000,-0.470
752487,0.000,-0.450
752488,-0.035,-0.445
752489,-0.055,-0.420
752490,-0.045,-0.415
752491,-0.045,-0.370
752492,-0.015,-0.340
752493,0.010,-0.335
752494,0.000,-0.310
752495,0.055,-0.300
752496,0.040,-0.300
752497,0.020,-0.345
752498,0.025,-0.365
752499,0.010,-0.375
752500,0.005,-0.400
752501,0.015,-0.450
752502,0.010,-0.450
752503,0.010,-0.470
752504,-0.005,-0.470
752505,-0.050,-0.495
752506,-0.030,-0.495
752507,-0.045,-0.520
752508,-0.050,-0.550
752509,-0.060,-0.565
752510,-0.045,-0.580
752511,-0.050,-0.550
752512,-0.045,-0.560
752513,-0.030,-0.575
752514,-0.060,-0.580
752515,-0.065,-0.570
752516,-0.075,-0.555
752517,-0.080,-0.565
752518,-0.085,-0.570
752519,-0.060,-0.550
752520,-0.060,-0.555
752521,-0.080,-0.555
752522,-0.060,-0.575
752523,-0.030,-0.560
752524,-0.065,-0.560
752525,-0.065,-0.560
752526,-0.060,-0.555
752527,-0.070,-0.540
752528,-0.080,-0.535
752529,-0.095,-0.500
752530,-0.080,-0.425
752531,-0.060,-0.280
752532,-0.060,-0.075
752533,-0.035,0.190
752534,0.010,0.575
752535,-0.020,0.900
752536,-0.125,1.150
752537,-0.330,1.420
752538,-0.570,1.685
752539,-0.810,1.930
752540,-0.960,1.955
752541,-1.005,1.855
752542,-0.975,1.735
752543,-0.900,1.530
752544,-0.860,1.310
752545,-0.800,1.125
752546,-0.760,1.000
752547,-0.710,0.985
752548,-0.665,1.185
752549,-0.610,1.490
752550,-0.570,1.730
752551,-0.530,1.585
752552,-0.495,1.015
752553,-0.440,0.255
752554,-0.400,-0.240
752555,-0.350,-0.560
752556,-0.305,-0.680
752557,-0.220,-0.740
752558,-0.180,-0.780
752559,-0.125,-0.805
752560,-0.065,-0.755
752561,-0.020,-0.735
752562,0.025,-0.730
752563,0.050,-0.725
752564,0.060,-0.710
752565,0.080,-0.725
752566,0.110,-0.720
752567,0.145,-0.715
752568,0.140,-0.715
752569,0.130,-0.700
752570,0.135,-0.685
752571,0.130,-0.675
752572,0.120,-0.670
752573,0.160,-0.650
752574,0.155,-0.685
752575,0.165,-0.675
752576,0.155,-0.650
752577,0.200,-0.650
752578,0.200,-0.675
752579,0.180,-0.660
752580,0.170,-0.640
752581,0.190,-0.645
752582,0.180,-0.630
752583,0.180,-0.630
752584,0.195,-0.645
752585,0.235,-0.670
752586,0.235,-0.700
752587,0.255,-0.710
752588,0.240,-0.720
752589,0.255,-0.745
752590,0.240,-0.750
752591,0.255,-0.770
752592,0.250,-0.770
752593,0.270,-0.790
752594,0.280,-0.815
752595,0.290,-0.830
752596,0.300,-0.835
752597,0.320,-0.835
752598,0.300,-0.840
752599,0.325,-0.840
752600,0.280,-0.810
752601,0.305,-0.800
752602,0.315,-0.780
752603,0.310,-0.755
752604,0.290,-0.690
752605,0.290,-0.660
752606,0.295,-0.595
752607,0.260,-0.570
752608,0.230,-0.565
752609,0.220,-0.500
752610,0.200,-0.470
752611,0.180,-0.450
752612,0.145,-0.455
752613,0.165,-0.435
752614,0.150,-0.435
752615,0.150,-0.440
752616,0.090,-0.450
752617,0.080,-0.440
752618,0.070,-0.435
752619,0.030,-0.470
752620,-0.005,-0.465
752621,0.015,-0.470
752622,0.020,-0.465
752623,0.020,-0.480
752624,0.050,-0.495
752625,0.030,-0.485
752626,0.010,-0.495
752627,0.000,-0.485
752628,0.000,-0.480
752629,-0.010,-0.490
752630,0.000,-0.500
752631,0.005,-0.495
752632,0.000,-0.505
752633,0.020,-0.510
752634,0.010,-0.510
752635,0.015,-0.525
752636,-0.010,-0.540
752637,-0.015,-0.520
752638,0.000,-0.515
752639,-0.010,-0.535
752640,-0.035,-0.555
752641,-0.020,-0.560
752642,-0.025,-0.550
752643,-0.005,-0.560
752644,0.005,-0.535
752645,0.010,-0.565
752646,-0.020,-0.580
752647,0.000,-0.580
752648,-0.020,-0.580
752649,-0.015,-0.570
752650,0.000,-0.575
752651,0.000,-0.575
752652,0.005,-0.585
752653,0.005,-0.585
752654,0.000,-0.595
752655,0.005,-0.590
752656,0.000,-0.585
752657,-0.020,-0.580
752658,-0.020,-0.580
752659,-0.020,-0.570
752660,0.000,-0.565
752661,0.015,-0.570
752662,0.005,-0.545
752663,-0.015,-0.555
752664,-0.020,-0.570
752665,-0.020,-0.560
752666,-0.040,-0.550
752667,-0.060,-0.560
752668,-0.045,-0.550
752669,-0.025,-0.570
752670,0.000,-0.530
752671,0.000,-0.535
752672,-0.010,-0.570
752673,-0.040,-0.540
752674,-0.040,-0.545
752675,-0.060,-0.550
752676,-0.040,-0.535
752677,-0.045,-0.550
752678,-0.040,-0.520
752679,-0.035,-0.525
752680,-0.005,-0.520
752681,-0.035,-0.520
752682,-0.020,-0.525
752683,-0.040,-0.520
752684,-0.040,-0.525
752685,-0.040,-0.525
752686,-0.045,-0.515
752687,-0.040,-0.510
752688,-0.030,-0.500
752689,0.000,-0.505
752690,-0.005,-0.480
752691,-0.020,-0.450
752692,-0.025,-0.430
752693,-0.030,-0.400
752694,-0.030,-0.380
752695,-0.005,-0.375
752696,0.010,-0.325
752697,0.025,-0.300
752698,0.040,-0.305
752699,0.055,-0.285
752700,0.050,-0.320
752701,0.060,-0.375
752702,0.050,-0.380
752703,0.045,-0.375
752704,0.015,-0.400
752705,0.030,-0.450
752706,0.030,-0.435
752707,0.030,-0.460
752708,0.000,-0.470
752709,-0.005,-0.485
752710,-0.030,-0.505
752711,-0.050,-0.540
752712,-0.025,-0.555
752713,-0.020,-0.550
752714,-0.030,-0.540
752715,-0.035,-0.555
752716,0.010,-0.550
752717,-0.010,-0.565
752718,-0.020,-0.540
752719,-0.040,-0.550
752720,-0.040,-0.555
752721,-0.045,-0.555
752722,-0.060,-0.545
752723,-0.070,-0.540
752724,-0.030,-0.540
752725,-0.030,-0.535
752726,-0.020,-0.525
752727,-0.050,-0.535
752728,-0.035,-0.540
752729,-0.055,-0.530
752730,-0.050,-0.520
752731,-0.055,-0.505
752732,-0.055,-0.500
752733,-0.035,-0.450
752734,-0.040,-0.335
752735,-0.010,-0.150
752736,-0.005,0.110
752737,0.015,0.495
752738,-0.010,0.865
752739,-0.100,1.100
752740,-0.240,1.380
752741,-0.475,1.675
752742,-0.750,1.930
752743,-0.960,2.015
752744,-1.045,1.980
752745,-1.000,1.925
752746,-0.950,1.800
752747,-0.895,1.610
752748,-0.835,1.435
752749,-0.810,1.295
752750,-0.785,1.210
752751,-0.715,1.325
752752,-0.655,1.580
752753,-0.645,1.890
752754,-0.605,1.935
752755,-0.555,1.475
752756,-0.535,0.730
752757,-0.480,0.060
752758,-0.430,-0.335
752759,-0.370,-0.575
752760,-0.300,-0.660
752761,-0.200,-0.735
752762,-0.160,-0.760
752763,-0.105,-0.770
752764,-0.050,-0.720
752765,0.025,-0.740
752766,0.065,-0.730
752767,0.090,-0.725
752768,0.090,-0.725
752769,0.110,-0.740
752770,0.110,-0.735
752771,0.105,-0.720
752772,0.135,-0.720
752773,0.135,-0.705
752774,0.130,-0.705
752775,0.150,-0.670
752776,0.120,-0.660
752777,0.115,-0.675
752778,0.120,-0.660
752779,0.130,-0.650
752780,0.150,-0.640
752781,0.170,-0.640
752782,0.150,-0.640
752783,0.130,-0.645
752784,0.160,-0.640
752785,0.180,-0.660
752786,0.160,-0.670
752787,0.175,-0.650
752788,0.200,-0.655
752789,0.205,-0.660
752790,0.230,-0.700
752791,0.220,-0.700
752792,0.260,-0.715
752793,0.265,-0.740
752794,0.250,-0.785
752795,0.250,-0.790
752796,0.265,-0.790
752797,0.275,-0.810
752798,0.270,-0.840
752799,0.290,-0.845
752800,0.315,-0.850
752801,0.335,-0.865
752802,0.325,-0.865
752803,0.330,-0.845
752804,0.325,-0.820
752805,0.305,-0.815
752806,0.300,-0.775
752807,0.290,-0.750
752808,0.275,-0.695
752809,0.305,-0.655
752810,0.295,-0.605
752811,0.270,-0.575
752812,0.230,-0.520
752813,0.220,-0.495
752814,0.200,-0.455
752815,0.165,-0.425
752816,0.130,-0.435
752817,0.135,-0.420
752818,0.120,-0.420
752819,0.100,-0.435
752820,0.085,-0.430
752821,0.070,-0.445
752822,0.070,-0.445
752823,0.050,-0.450
752824,0.015,-0.450
752825,0.030,-0.450
752826,0.010,-0.450
752827,0.005,-0.450
752828,0.005,-0.460
752829,0.005,-0.455
752830,0.020,-0.460
752831,0.000,-0.475
752832,0.000,-0.470
752833,0.005,-0.490
752834,-0.010,-0.465
752835,0.000,-0.505
752836,0.005,-0.490
752837,0.035,-0.485
752838,0.015,-0.505
752839,0.055,-0.495
752840,0.015,-0.515
752841,0.040,-0.500
752842,0.025,-0.500
752843,0.010,-0.530
752844,0.015,-0.515
752845,0.015,-0.500
752846,0.040,-0.505
752847,0.040,-0.505
752848,0.040,-0.525
752849,0.065,-0.530
752850,0.040,-0.515
752851,0.010,-0.540
752852,0.030,-0.535
752853,0.025,-0.525
752854,0.015,-0.530
752855,0.005,-0.530
752856,0.010,-0.520
752857,0.010,-0.530
752858,0.025,-0.530
752859,0.020,-0.525
752860,0.025,-0.520
752861,0.025,-0.525
752862,0.020,-0.495
752863,0.035,-0.505
752864,0.005,-0.495
752865,0.035,-0.515
752866,0.040,-0.515
752867,0.030,-0.500
752868,0.040,-0.505
752869,0.030,-0.520
752870,0.045,-0.490
752871,0.035,-0.490
752872,0.025,-0.515
752873,0.000,-0.505
752874,0.000,-0.490
752875,-0.005,-0.480
752876,0.020,-0.475
752877,0.040,-0.480
752878,0.020,-0.480
752879,0.035,-0.475
752880,0.015,-0.490
752881,0.015,-0.475
752882,0.000,-0.475
752883,-0.005,-0.480
752884,0.005,-0.470
752885,0.025,-0.465
752886,0.015,-0.470
752887,0.020,-0.460
752888,0.015,-0.460
752889,0.005,-0.440
752890,-0.015,-0.450
752891,-0.005,-0.450
752892,-0.005,-0.445
752893,0.000,-0.430
752894,0.000,-0.420
752895,0.040,-0.380
752896,0.015,-0.350
752897,0.025,-0.345
752898,0.005,-0.305
752899,0.025,-0.310
752900,0.040,-0.260
752901,0.030,-0.235
752902,0.045,-0.265
752903,0.035,-0.240
752904,0.055,-0.265
752905,0.075,-0.290
752906,0.075,-0.330
752907,0.080,-0.335
752908,0.060,-0.340
752909,0.035,-0.360
752910,0.010,-0.380
752911,0.000,-0.395
752912,-0.040,-0.395
752913,-0.055,-0.430
752914,-0.060,-0.455
752915,-0.015,-0.490
752916,-0.015,-0.515
752917,-0.015,-0.505
752918,-0.025,-0.495
752919,-0.025,-0.500
752920,-0.040,-0.495
752921,-0.060,-0.480
752922,-0.050,-0.500
752923,-0.030,-0.495
752924,-0.035,-0.495
752925,-0.010,-0.485
752926,-0.015,-0.490
752927,-0.040,-0.495
752928,-0.050,-0.510
752929,-0.045,-0.475
752930,-0.050,-0.480
752931,-0.060,-0.465
752932,-0.040,-0.485
752933,-0.050,-0.475
752934,-0.060,-0.460
752935,-0.010,-0.450
752936,-0.035,-0.465
752937,-0.025,-0.430
752938,-0.040,-0.375
752939,-0.060,-0.250
752940,-0.030,-0.080
752941,-0.035,0.145
752942,0.005,0.465
752943,0.000,0.760
752944,-0.040,0.960
752945,-0.190,1.200
752946,-0.385,1.485
752947,-0.660,1.725
752948,-0.875,1.830
752949,-1.020,1.825
752950,-1.070,1.785
752951,-1.025,1.670
752952,-0.925,1.475
752953,-0.860,1.295
752954,-0.830,1.135
752955,-0.795,1.000
752956,-0.730,0.915
752957,-0.690,0.960
752958,-0.670,1.190
752959,-0.655,1.460
752960,-0.645,1.535
752961,-0.595,1.170
752962,-0.530,0.505
752963,-0.460,-0.120
752964,-0.405,-0.535
752965,-0.350,-0.730
752966,-0.295,-0.755
752967,-0.270,-0.730
752968,-0.215,-0.700
752969,-0.155,-0.675
752970,-0.065,-0.675
752971,-0.030,-0.610
752972,0.050,-0.620
752973,0.075,-0.605
752974,0.125,-0.625
752975,0.140,-0.615
752976,0.140,-0.595
752977,0.120,-0.590
752978,0.145,-0.585
752979,0.135,-0.560
752980,0.125,-0.560
752981,0.150,-0.540
752982,0.180,-0.555
752983,0.185,-0.565
752984,0.190,-0.575
752985,0.165,-0.555
752986,0.155,-0.545
752987,0.160,-0.555
752988,0.185,-0.565
752989,0.195,-0.550
752990,0.190,-0.535
752991,0.170,-0.550
752992,0.205,-0.550
752993,0.205,-0.540
752994,0.230,-0.560
752995,0.210,-0.570
752996,0.235,-0.580
752997,0.230,-0.615
752998,0.195,-0.625
752999,0.240,-0.635
753000,0.245,-0.635
753001,0.240,-0.640
753002,0.265,-0.665
753003,0.285,-0.690
753004,0.290,-0.690
753005,0.305,-0.725
753006,0.305,-0.725
753007,0.305,-0.720
753008,0.315,-0.735
753009,0.310,-0.760
753010,0.315,-0.770
753011,0.315,-0.755
753012,0.350,-0.745
753013,0.325,-0.725
753014,0.315,-0.700
753015,0.310,-0.665
753016,0.305,-0.620
753017,0.285,-0.615
753018,0.260,-0.570
753019,0.245,-0.535
753020,0.210,-0.480
753021,0.210,-0.465
753022,0.175,-0.435
753023,0.175,-0.405
753024,0.170,-0.415
753025,0.160,-0.390
753026,0.130,-0.395
753027,0.105,-0.365
753028,0.085,-0.375
753029,0.085,-0.380
753030,0.065,-0.390
753031,0.045,-0.385
753032,0.060,-0.395
753033,0.060,-0.395
753034,0.070,-0.395
753035,0.005,-0.415
753036,0.005,-0.405
753037,0.000,-0.420
753038,-0.005,-0.435
753039,-0.015,-0.430
753040,-0.025,-0.435
753041,-0.030,-0.435
753042,-0.030,-0.420
753043,0.000,-0.430
753044,0.015,-0.445
753045,-0.010,-0.450
753046,-0.010,-0.450
753047,-0.020,-0.450
753048,-0.020,-0.450
753049,-0.020,-0.450
753050,-0.030,-0.460
753051,-0.020,-0.460
753052,0.000,-0.455
753053,0.035,-0.465
753054,0.030,-0.470
753055,0.005,-0.480
753056,0.025,-0.490
753057,0.000,-0.475
753058,-0.005,-0.475
753059,0.000,-0.485
753060,-0.010,-0.480
753061,0.000,-0.480
753062,0.030,-0.485
753063,0.035,-0.490
753064,0.040,-0.505
753065,0.035,-0.505
753066,0.035,-0.495
753067,0.040,-0.470
753068,0.005,-0.505
753069,0.005,-0.505
753070,0.020,-0.495
753071,0.015,-0.485
753072,0.015,-0.495
753073,0.040,-0.505
753074,0.055,-0.480
753075,0.025,-0.475
753076,0.020,-0.485
753077,0.015,-0.475
753078,0.020,-0.480
753079,-0.015,-0.475
753080,0.015,-0.455
753081,0.000,-0.475
753082,-0.015,-0.485
753083,0.005,-0.450
753084,-0.005,-0.460
753085,-0.020,-0.450
753086,-0.020,-0.460
753087,-0.030,-0.480
753088,-0.010,-0.455
753089,-0.030,-0.450
753090,-0.005,-0.445
753091,-0.005,-0.460
753092,0.010,-0.440
753093,0.010,-0.440
753094,-0.015,-0.435
753095,0.010,-0.440
753096,0.000,-0.415
753097,-0.025,-0.410
753098,-0.025,-0.415
753099,-0.025,-0.440
753100,0.005,-0.435
753101,0.025,-0.435
753102,0.025,-0.400
753103,0.015,-0.435
753104,0.015,-0.420
753105,0.025,-0.415
753106,0.030,-0.430
753107,0.020,-0.405
753108,0.000,-0.360
753109,0.035,-0.315
753110,-0.005,-0.315
753111,0.010,-0.305
753112,0.040,-0.260
753113,0.065,-0.240
753114,0.095,-0.200
753115,0.095,-0.210
753116,0.090,-0.210
753117,0.080,-0.205
753118,0.095,-0.235
753119,0.075,-0.270
753120,0.100,-0.275
753121,0.075,-0.290
753122,0.075,-0.320
753123,0.070,-0.320
753124,0.045,-0.360
753125,0.035,-0.360
753126,0.015,-0.375
753127,0.000,-0.390
753128,-0.030,-0.410
753129,-0.020,-0.440
753130,-0.020,-0.475
753131,0.000,-0.445
753132,0.005,-0.445
753133,0.005,-0.455
753134,0.000,-0.455
753135,0.000,-0.460
753136,-0.015,-0.450
753137,-0.010,-0.450
753138,0.000,-0.465
753139,-0.010,-0.455
753140,-0.015,-0.440
753141,0.010,-0.445
753142,0.025,-0.445
753143,0.030,-0.445
753144,0.000,-0.445
753145,-0.030,-0.430
753146,-0.020,-0.440
753147,-0.005,-0.435
753148,-0.025,-0.450
753149,-0.025,-0.410
753150,-0.025,-0.395
753151,-0.010,-0.405
753152,0.015,-0.350
753153,-0.010,-0.275
753154,-0.010,-0.125
753155,-0.010,0.050
753156,-0.005,0.315
753157,0.010,0.645
753158,-0.015,0.880
753159,-0.115,1.075
753160,-0.275,1.335
753161,-0.535,1.595
753162,-0.770,1.800
753163,-0.955,1.795
753164,-1.025,1.770
753165,-1.030,1.700
753166,-0.995,1.580
753167,-0.905,1.365
753168,-0.850,1.190
753169,-0.840,1.030
753170,-0.775,0.905
753171,-0.700,0.885
753172,-0.635,1.010
753173,-0.625,1.255
753174,-0.605,1.495
753175,-0.580,1.420
753176,-0.520,0.910
753177,-0.485,0.245
753178,-0.465,-0.280
753179,-0.430,-0.580
753180,-0.365,-0.690
753181,-0.305,-0.700
753182,-0.225,-0.655
753183,-0.155,-0.615
753184,-0.085,-0.590
753185,-0.025,-0.560
753186,-0.010,-0.545
753187,0.030,-0.530
753188,0.090,-0.535
753189,0.115,-0.545
753190,0.135,-0.510
753191,0.160,-0.520
753192,0.145,-0.505
753193,0.160,-0.510
753194,0.145,-0.505
753195,0.165,-0.490
753196,0.165,-0.475
753197,0.170,-0.495
753198,0.180,-0.485
753199,0.180,-0.470
753200,0.200,-0.485
753201,0.200,-0.480
753202,0.210,-0.490
753203,0.200,-0.500
753204,0.185,-0.495
753205,0.190,-0.495
753206,0.185,-0.510
753207,0.200,-0.500
753208,0.200,-0.520
753209,0.210,-0.500
753210,0.225,-0.520
753211,0.240,-0.535
753212,0.255,-0.555
753213,0.235,-0.545
753214,0.255,-0.530
753215,0.260,-0.560
753216,0.240,-0.585
753217,0.230,-0.575
753218,0.255,-0.600
753219,0.285,-0.620
753220,0.315,-0.635
753221,0.300,-0.630
753222,0.315,-0.635
753223,0.310,-0.650
753224,0.305,-0.665
753225,0.300,-0.650
753226,0.305,-0.645
753227,0.325,-0.655
753228,0.315,-0.645
753229,0.285,-0.635
753230,0.305,-0.590
753231,0.320,-0.575
753232,0.275,-0.520
753233,0.255,-0.490
753234,0.245,-0.450
753235,0.245,-0.405
753236,0.195,-0.390
753237,0.175,-0.380
753238,0.145,-0.330
753239,0.130,-0.315
753240,0.095,-0.310
753241,0.100,-0.315
753242,0.090,-0.345
753243,0.065,-0.335
753244,0.045,-0.315
753245,0.020,-0.335
753246,0.000,-0.345
753247,-0.015,-0.320
753248,-0.035,-0.320
753249,-0.050,-0.355
753250,-0.040,-0.365
753251,-0.050,-0.370
753252,-0.040,-0.355
753253,-0.020,-0.370
753254,-0.040,-0.390
753255,-0.070,-0.395
753256,-0.070,-0.380
753257,-0.065,-0.370
753258,-0.065,-0.390
753259,-0.075,-0.380
753260,-0.075,-0.395
753261,-0.030,-0.380
753262,-0.040,-0.400
753263,-0.030,-0.415
753264,-0.035,-0.425
753265,-0.075,-0.425
753266,-0.080,-0.425
753267,-0.065,-0.430
753268,-0.055,-0.425
753269,-0.065,-0.415
753270,-0.045,-0.415
753271,-0.040,-0.430
753272,-0.040,-0.440
753273,-0.040,-0.425
753274,-0.040,-0.415
753275,-0.045,-0.445
753276,-0.085,-0.465
753277,-0.095,-0.440
753278,-0.065,-0.460
753279,-0.080,-0.445
753280,-0.065,-0.450
753281,-0.050,-0.455
753282,-0.065,-0.435
753283,-0.035,-0.430
753284,-0.045,-0.445
753285,-0.075,-0.445
753286,-0.075,-0.450
753287,-0.080,-0.450
753288,-0.095,-0.440
753289,-0.080,-0.465
753290,-0.055,-0.450
753291,-0.040,-0.430
753292,-0.025,-0.430
753293,-0.055,-0.435
753294,-0.070,-0.460
753295,-0.060,-0.450
753296,-0.060,-0.415
753297,-0.095,-0.450
753298,-0.070,-0.435
753299,-0.055,-0.425
753300,-0.060,-0.420
753301,-0.040,-0.420
753302,-0.100,-0.425
753303,-0.085,-0.410
753304,-0.065,-0.430
753305,-0.085,-0.400
753306,-0.060,-0.435
753307,-0.070,-0.420
753308,-0.070,-0.425
753309,-0.070,-0.415
753310,-0.040,-0.410
753311,-0.060,-0.410
753312,-0.070,-0.430
753313,-0.080,-0.405
753314,-0.080,-0.430
753315,-0.105,-0.435
753316,-0.105,-0.415
753317,-0.090,-0.405
753318,-0.110,-0.400
753319,-0.085,-0.395
753320,-0.055,-0.400
753321,-0.055,-0.380
753322,-0.105,-0.395
753323,-0.105,-0.390
753324,-0.080,-0.375
753325,-0.120,-0.350
753326,-0.135,-0.310
753327,-0.130,-0.270
753328,-0.145,-0.280
753329,-0.095,-0.250
753330,-0.060,-0.225
753331,-0.060,-0.200
753332,-0.055,-0.195
753333,-0.050,-0.190
753334,-0.040,-0.190
753335,-0.060,-0.225
753336,-0.020,-0.280
753337,-0.025,-0.275
753338,-0.035,-0.295
753339,-0.035,-0.320
753340,-0.035,-0.330
753341,-0.045,-0.360
753342,-0.075,-0.350
753343,-0.095,-0.340
753344,-0.135,-0.380
753345,-0.120,-0.425
753346,-0.150,-0.425
753347,-0.140,-0.435
753348,-0.120,-0.435
753349,-0.100,-0.440
753350,-0.095,-0.430
753351,-0.095,-0.425
753352,-0.135,-0.445
753353,-0.115,-0.465
753354,-0.140,-0.440
753355,-0.135,-0.425
753356,-0.180,-0.425
753357,-0.150,-0.440
753358,-0.115,-0.420
753359,-0.125,-0.415
753360,-0.120,-0.390
753361,-0.115,-0.400
753362,-0.120,-0.420
753363,-0.135,-0.405
753364,-0.155,-0.385
753365,-0.150,-0.385
753366,-0.140,-0.395
753367,-0.130,-0.385
753368,-0.085,-0.350
753369,-0.070,-0.315
753370,-0.070,-0.250
753371,-0.080,-0.135
753372,-0.090,0.070
753373,-0.080,0.380
753374,-0.055,0.730
753375,-0.095,1.010
753376,-0.205,1.275
753377,-0.375,1.585
753378,-0.620,1.890
753379,-0.865,2.045
753380,-1.045,2.075
753381,-1.145,2.050
753382,-1.130,1.950
753383,-1.065,1.800
753384,-1.030,1.600
753385,-0.990,1.430
753386,-0.960,1.280
753387,-0.865,1.215
753388,-0.810,1.275
753389,-0.770,1.480
753390,-0.735,1.785
753391,-0.705,1.955
753392,-0.675,1.765
753393,-0.660,1.205
753394,-0.615,0.540
753395,-0.560,0.045
753396,-0.490,-0.255
753397,-0.415,-0.475
753398,-0.340,-0.535
753399,-0.280,-0.610
753400,-0.240,-0.630
753401,-0.180,-0.620
753402,-0.155,-0.575
753403,-0.095,-0.560
753404,-0.040,-0.595
753405,-0.010,-0.605
753406,0.030,-0.605
753407,0.045,-0.580
753408,0.080,-0.590
753409,0.090,-0.575
753410,0.085,-0.565
753411,0.075,-0.560
753412,0.080,-0.560
753413,0.065,-0.540
753414,0.060,-0.530
753415,0.090,-0.545
753416,0.095,-0.545
753417,0.085,-0.525
753418,0.100,-0.505
753419,0.115,-0.500
753420,0.130,-0.490
753421,0.110,-0.510
753422,0.090,-0.510
753423,0.090,-0.500
753424,0.105,-0.490
753425,0.125,-0.495
753426,0.165,-0.520
753427,0.165,-0.520
753428,0.175,-0.545
753429,0.155,-0.555
753430,0.175,-0.575
753431,0.160,-0.580
753432,0.185,-0.590
753433,0.175,-0.630
753434,0.195,-0.665
753435,0.220,-0.660
753436,0.235,-0.660
753437,0.250,-0.690
753438,0.255,-0.695
753439,0.255,-0.715
753440,0.240,-0.700
753441,0.240,-0.700
753442,0.230,-0.705
753443,0.240,-0.655
753444,0.265,-0.650
753445,0.260,-0.605
753446,0.240,-0.565
753447,0.240,-0.540
753448,0.225,-0.495
753449,0.200,-0.455
753450,0.210,-0.420
753451,0.155,-0.400
753452,0.135,-0.365
753453,0.100,-0.335
753454,0.075,-0.320
753455,0.075,-0.295
753456,0.065,-0.305
753457,0.040,-0.285
753458,-0.005,-0.320
753459,-0.045,-0.320
753460,-0.040,-0.310
753461,-0.065,-0.315
753462,-0.085,-0.325
753463,-0.115,-0.350
753464,-0.105,-0.340
753465,-0.100,-0.340
753466,-0.085,-0.340
753467,-0.085,-0.350
753468,-0.090,-0.360
753469,-0.125,-0.335
753470,-0.130,-0.350
753471,-0.150,-0.350
753472,-0.160,-0.360
753473,-0.135,-0.370
753474,-0.120,-0.380
753475,-0.125,-0.385
753476,-0.135,-0.395
753477,-0.160,-0.370
753478,-0.155,-0.390
753479,-0.175,-0.385
753480,-0.185,-0.395
753481,-0.195,-0.400
753482,-0.185,-0.405
753483,-0.185,-0.390
753484,-0.165,-0.405
753485,-0.155,-0.415
753486,-0.150,-0.430
753487,-0.160,-0.430
753488,-0.180,-0.420
753489,-0.180,-0.430
753490,-0.230,-0.405
753491,-0.205,-0.445
753492,-0.220,-0.440
753493,-0.185,-0.455
753494,-0.175,-0.450
753495,-0.145,-0.435
753496,-0.175,-0.470
753497,-0.165,-0.455
753498,-0.185,-0.445
753499,-0.190,-0.445
753500,-0.180,-0.450
753501,-0.185,-0.435
753502,-0.185,-0.445
753503,-0.175,-0.435
753504,-0.185,-0.415
753505,-0.170,-0.465
753506,-0.155,-0.450
753507,-0.185,-0.460
753508,-0.200,-0.450
753509,-0.220,-0.450
753510,-0.200,-0.445
753511,-0.240,-0.435
753512,-0.235,-0.435
753513,-0.205,-0.455
753514,-0.180,-0.460
753515,-0.205,-0.420
753516,-0.215,-0.425
753517,-0.200,-0.435
753518,-0.220,-0.415
753519,-0.235,-0.400
753520,-0.255,-0.410
753521,-0.230,-0.420
753522,-0.210,-0.420
753523,-0.190,-0.420
753524,-0.170,-0.405
753525,-0.190,-0.410
753526,-0.215,-0.425
753527,-0.225,-0.405
753528,-0.220,-0.390
753529,-0.250,-0.420
753530,-0.235,-0.420
753531,-0.210,-0.410
753532,-0.215,-0.405
753533,-0.210,-0.405
753534,-0.180,-0.400
753535,-0.190,-0.405
753536,-0.200,-0.405
753537,-0.220,-0.375
753538,-0.235,-0.385
753539,-0.230,-0.345
753540,-0.200,-0.315
753541,-0.215,-0.305
753542,-0.195,-0.285
753543,-0.180,-0.265
753544,-0.175,-0.235
753545,-0.180,-0.195
753546,-0.160,-0.210
753547,-0.160,-0.200
753548,-0.140,-0.230
753549,-0.160,-0.250
753550,-0.155,-0.280
753551,-0.145,-0.265
753552,-0.155,-0.280
753553,-0.175,-0.310
753554,-0.190,-0.355
753555,-0.225,-0.345
753556,-0.240,-0.355
753557,-0.290,-0.345
753558,-0.305,-0.380
753559,-0.290,-0.445
753560,-0.255,-0.440
753561,-0.250,-0.460
753562,-0.270,-0.455
753563,-0.275,-0.450
753564,-0.270,-0.460
753565,-0.305,-0.450
753566,-0.285,-0.465
753567,-0.280,-0.455
753568,-0.300,-0.440
753569,-0.295,-0.430
753570,-0.300,-0.455
753571,-0.290,-0.435
753572,-0.275,-0.460
753573,-0.305,-0.455
753574,-0.325,-0.440
753575,-0.300,-0.435
753576,-0.325,-0.440
753577,-0.315,-0.445
753578,-0.320,-0.425
753579,-0.285,-0.420
753580,-0.280,-0.435
753581,-0.305,-0.390
753582,-0.295,-0.355
753583,-0.290,-0.260
753584,-0.295,-0.095
753585,-0.270,0.140
753586,-0.250,0.525
753587,-0.225,0.910
753588,-0.315,1.180
753589,-0.435,1.480
753590,-0.675,1.815
753591,-0.935,2.105
753592,-1.140,2.230
753593,-1.335,2.220
753594,-1.350,2.155
753595,-1.305,2.055
753596,-1.230,1.880
753597,-1.155,1.755
753598,-1.080,1.615
753599,-1.025,1.520
753600,-0.955,1.540
753601,-0.925,1.730
753602,-0.910,2.035
753603,-0.855,2.255
753604,-0.835,2.110
753605,-0.780,1.520
753606,-0.740,0.790
753607,-0.675,0.215
753608,-0.580,-0.170
753609,-0.540,-0.420
753610,-0.490,-0.535
753611,-0.410,-0.610
753612,-0.365,-0.665
753613,-0.300,-0.635
753614,-0.245,-0.625
753615,-0.190,-0.610
753616,-0.130,-0.625
753617,-0.085,-0.640
753618,-0.075,-0.635
753619,-0.080,-0.590
753620,-0.060,-0.595
753621,-0.065,-0.630
753622,-0.080,-0.600
753623,-0.055,-0.590
753624,-0.035,-0.560
753625,-0.055,-0.575
753626,-0.045,-0.570
753627,-0.020,-0.550
753628,-0.005,-0.540
753629,0.000,-0.530
753630,-0.015,-0.540
753631,-0.030,-0.510
753632,-0.005,-0.490
753633,-0.030,-0.495
753634,-0.005,-0.540
753635,0.000,-0.525
753636,0.025,-0.495
753637,0.055,-0.515
753638,0.035,-0.540
753639,0.070,-0.540
753640,0.040,-0.545
753641,0.075,-0.560
753642,0.070,-0.590
753643,0.080,-0.625
753644,0.120,-0.615
753645,0.160,-0.635
753646,0.160,-0.665
753647,0.195,-0.695
753648,0.205,-0.675
753649,0.235,-0.725
753650,0.235,-0.725
753651,0.230,-0.725
753652,0.215,-0.725
753653,0.230,-0.705
753654,0.240,-0.695
753655,0.240,-0.680
753656,0.255,-0.655
753657,0.245,-0.620
753658,0.240,-0.560
753659,0.215,-0.535
753660,0.220,-0.490
753661,0.200,-0.435
753662,0.225,-0.395
753663,0.205,-0.380
753664,0.215,-0.350
753665,0.190,-0.320
753666,0.180,-0.310
753667,0.155,-0.300
753668,0.115,-0.290
753669,0.095,-0.290
753670,0.085,-0.295
753671,0.040,-0.300
753672,0.020,-0.280
753673,0.055,-0.300
753674,0.040,-0.315
753675,0.050,-0.315
753676,0.035,-0.310
753677,0.070,-0.305
753678,0.040,-0.320
753679,0.010,-0.330
753680,0.000,-0.330
753681,0.005,-0.315
753682,0.020,-0.330
753683,0.030,-0.330
753684,0.030,-0.355
753685,0.035,-0.355
753686,0.020,-0.350
753687,0.015,-0.360
753688,0.015,-0.355
753689,0.020,-0.355
753690,0.020,-0.355
753691,0.010,-0.365
753692,0.030,-0.385
753693,0.035,-0.390
753694,0.040,-0.390
753695,0.030,-0.380
753696,0.035,-0.390
753697,0.040,-0.385
753698,0.020,-0.385
753699,0.000,-0.390
753700,-0.015,-0.380
753701,0.005,-0.385
753702,0.015,-0.380
753703,0.020,-0.380
753704,0.025,-0.390
753705,0.010,-0.385
753706,0.005,-0.395
753707,0.020,-0.410
753708,-0.005,-0.400
753709,-0.005,-0.400
753710,-0.025,-0.395
753711,-0.015,-0.390
753712,0.005,-0.385
753713,0.005,-0.385
753714,-0.015,-0.395
753715,-0.015,-0.405
753716,0.000,-0.395
753717,-0.015,-0.400
753718,-0.025,-0.390
753719,-0.025,-0.375
753720,-0.005,-0.380
753721,-0.025,-0.390
753722,0.000,-0.370
753723,0.000,-0.385
753724,-0.030,-0.355
753725,-0.030,-0.395
753726,-0.055,-0.370
753727,-0.055,-0.390
753728,-0.040,-0.385
753729,-0.045,-0.370
753730,-0.030,-0.380
753731,-0.025,-0.360
753732,-0.025,-0.360
753733,-0.020,-0.375
753734,-0.040,-0.370
753735,-0.050,-0.365
753736,-0.065,-0.365
753737,-0.075,-0.370
753738,-0.055,-0.370
753739,-0.055,-0.345
753740,-0.050,-0.370
753741,-0.035,-0.385
753742,-0.030,-0.360
753743,-0.050,-0.365
753744,-0.055,-0.340
753745,-0.035,-0.355
753746,-0.040,-0.295
753747,-0.065,-0.260
753748,-0.025,-0.240
753749,-0.010,-0.240
753750,0.000,-0.190
753751,0.000,-0.175
753752,0.030,-0.170
753753,0.020,-0.155
753754,0.030,-0.160
753755,0.005,-0.150
753756,0.035,-0.185
753757,0.020,-0.220
753758,0.035,-0.240
753759,0.000,-0.230
753760,0.015,-0.260
753761,-0.010,-0.300
753762,-0.005,-0.295
753763,-0.025,-0.300
753764,-0.040,-0.325
753765,-0.055,-0.385
753766,-0.060,-0.400
753767,-0.040,-0.395
753768,-0.045,-0.400
753769,-0.020,-0.400
753770,-0.020,-0.400
753771,-0.025,-0.400
753772,-0.055,-0.405
753773,-0.050,-0.400
753774,-0.050,-0.410
753775,-0.060,-0.420
753776,-0.055,-0.400
753777,-0.045,-0.395
753778,-0.005,-0.400
753779,-0.020,-0.390
753780,0.000,-0.395
753781,-0.030,-0.405
753782,-0.045,-0.400
753783,-0.055,-0.390
753784,-0.060,-0.370
753785,-0.050,-0.395
753786,-0.035,-0.370
753787,-0.010,-0.365
753788,-0.015,-0.335
753789,-0.020,-0.280
753790,-0.035,-0.190
753791,-0.035,-0.040
753792,-0.010,0.195
753793,0.020,0.515
753794,0.030,0.810
753795,-0.060,1.030
753796,-0.200,1.285
753797,-0.415,1.575
753798,-0.660,1.840
753799,-0.890,1.930
753800,-1.055,1.920
753801,-1.065,1.850
753802,-0.970,1.735
753803,-0.935,1.540
753804,-0.865,1.365
753805,-0.835,1.210
753806,-0.775,1.100
753807,-0.705,1.145
753808,-0.640,1.335
753809,-0.625,1.645
753810,-0.600,1.720
753811,-0.565,1.410
753812,-0.535,0.745
753813,-0.475,0.065
753814,-0.435,-0.355
753815,-0.370,-0.575
753816,-0.310,-0.625
753817,-0.240,-0.595
753818,-0.160,-0.590
753819,-0.115,-0.585
753820,-0.070,-0.550
753821,0.005,-0.510
753822,0.070,-0.490
753823,0.080,-0.510
753824,0.100,-0.515
753825,0.120,-0.495
753826,0.150,-0.495
753827,0.135,-0.505
753828,0.130,-0.475
753829,0.140,-0.465
753830,0.135,-0.450
753831,0.140,-0.460
753832,0.165,-0.460
753833,0.155,-0.435
753834,0.175,-0.430
753835,0.185,-0.445
753836,0.180,-0.435
753837,0.195,-0.415
753838,0.205,-0.420
753839,0.180,-0.425
753840,0.195,-0.445
753841,0.215,-0.420
753842,0.225,-0.425
753843,0.255,-0.445
753844,0.280,-0.460
753845,0.295,-0.455
753846,0.310,-0.460
753847,0.290,-0.470
753848,0.315,-0.480
753849,0.300,-0.500
753850,0.315,-0.525
753851,0.305,-0.555
753852,0.320,-0.550
753853,0.365,-0.580
753854,0.360,-0.585
753855,0.400,-0.590
753856,0.370,-0.620
753857,0.380,-0.640
753858,0.390,-0.600
753859,0.395,-0.605
753860,0.405,-0.600
753861,0.400,-0.580
753862,0.415,-0.580
753863,0.400,-0.550
753864,0.395,-0.525
753865,0.375,-0.485
753866,0.365,-0.440
753867,0.350,-0.405
753868,0.300,-0.355
753869,0.270,-0.340
753870,0.265,-0.295
753871,0.265,-0.245
753872,0.265,-0.235
753873,0.240,-0.225
753874,0.235,-0.230
753875,0.205,-0.230
753876,0.175,-0.215
753877,0.140,-0.230
753878,0.145,-0.235
753879,0.130,-0.235
753880,0.100,-0.245
753881,0.095,-0.255
753882,0.085,-0.260
753883,0.095,-0.275
753884,0.115,-0.250
753885,0.105,-0.260
753886,0.070,-0.275
753887,0.075,-0.275
753888,0.055,-0.275
753889,0.085,-0.285
753890,0.060,-0.285
753891,0.060,-0.295
753892,0.075,-0.305
753893,0.070,-0.300
753894,0.075,-0.310
753895,0.080,-0.320
753896,0.070,-0.315
753897,0.065,-0.315
753898,0.055,-0.330
753899,0.040,-0.345
753900,0.065,-0.330
753901,0.075,-0.330
753902,0.100,-0.345
753903,0.075,-0.345
753904,0.070,-0.350
753905,0.070,-0.350
753906,0.075,-0.355
753907,0.075,-0.360
753908,0.075,-0.355
753909,0.075,-0.350
753910,0.070,-0.340
753911,0.090,-0.340
753912,0.120,-0.320
753913,0.110,-0.340
753914,0.065,-0.335
753915,0.060,-0.345
753916,0.050,-0.345
753917,0.080,-0.320
753918,0.065,-0.325
753919,0.070,-0.335
753920,0.090,-0.330
753921,0.110,-0.325
753922,0.100,-0.320
753923,0.100,-0.310
753924,0.100,-0.355
753925,0.090,-0.330
753926,0.060,-0.310
753927,0.070,-0.330
753928,0.065,-0.335
753929,0.080,-0.310
753930,0.085,-0.325
753931,0.080,-0.320
753932,0.075,-0.320
753933,0.075,-0.310
753934,0.075,-0.305
753935,0.065,-0.300
753936,0.055,-0.315
753937,0.070,-0.300
753938,0.060,-0.290
753939,0.075,-0.310
753940,0.095,-0.310
753941,0.100,-0.300
753942,0.080,-0.290
753943,0.095,-0.300
753944,0.095,-0.305
753945,0.075,-0.295
753946,0.065,-0.290
753947,0.060,-0.290
753948,0.090,-0.305
753949,0.070,-0.285
753950,0.085,-0.275
753951,0.090,-0.285
753952,0.090,-0.280
753953,0.100,-0.295
753954,0.080,-0.275
753955,0.055,-0.270
753956,0.070,-0.260
753957,0.080,-0.270
753958,0.100,-0.245
753959,0.080,-0.205
753960,0.080,-0.170
753961,0.055,-0.180
753962,0.040,-0.150
753963,0.080,-0.120
753964,0.115,-0.095
753965,0.130,-0.095
753966,0.125,-0.070
753967,0.120,-0.065
753968,0.145,-0.090
753969,0.160,-0.140
753970,0.130,-0.155
753971,0.095,-0.170
753972,0.055,-0.165
753973,0.050,-0.225
753974,0.035,-0.235
753975,0.060,-0.215
753976,0.000,-0.220
753977,0.010,-0.260
753978,0.030,-0.305
753979,0.045,-0.345
753980,0.050,-0.360
753981,0.035,-0.330
753982,0.000,-0.340
753983,0.015,-0.355
753984,0.000,-0.325
753985,0.015,-0.335
753986,0.005,-0.340
753987,0.010,-0.355
753988,0.015,-0.320
753989,0.015,-0.330
753990,0.020,-0.360
753991,0.015,-0.350
753992,-0.005,-0.345
753993,0.000,-0.335
753994,-0.020,-0.350
753995,-0.030,-0.345
753996,-0.020,-0.320
753997,-0.030,-0.335
753998,0.000,-0.330
753999,-0.005,-0.335
754000,-0.030,-0.295
754001,-0.025,-0.295
754002,-0.035,-0.250
754003,-0.030,-0.110
754004,-0.045,0.020
754005,-0.030,0.240
754006,0.010,0.540
754007,0.020,0.835
754008,-0.050,1.025
754009,-0.180,1.270
754010,-0.375,1.530
754011,-0.635,1.805
754012,-0.900,1.930
754013,-1.060,1.935
754014,-1.095,1.890
754015,-1.005,1.785
754016,-0.955,1.595
754017,-0.870,1.420
754018,-0.820,1.250
754019,-0.800,1.095
754020,-0.750,1.035
754021,-0.690,1.155
754022,-0.685,1.415
754023,-0.635,1.620
754024,-0.615,1.535
754025,-0.540,1.015
754026,-0.470,0.335
754027,-0.415,-0.180
754028,-0.370,-0.505
754029,-0.315,-0.630
754030,-0.260,-0.605
754031,-0.220,-0.590
754032,-0.160,-0.600
754033,-0.100,-0.550
754034,-0.025,-0.500
754035,0.030,-0.470
754036,0.110,-0.480
754037,0.085,-0.480
754038,0.095,-0.470
754039,0.120,-0.445
754040,0.140,-0.450
754041,0.155,-0.440
754042,0.145,-0.430
754043,0.145,-0.425
754044,0.180,-0.435
754045,0.200,-0.425
754046,0.200,-0.395
754047,0.195,-0.390
754048,0.185,-0.400
754049,0.175,-0.405
754050,0.160,-0.400
754051,0.180,-0.390
754052,0.175,-0.385
754053,0.185,-0.400
754054,0.230,-0.410
754055,0.250,-0.395
754056,0.260,-0.425
754057,0.240,-0.420
754058,0.235,-0.425
754059,0.245,-0.425
754060,0.275,-0.415
754061,0.285,-0.435
754062,0.295,-0.450
754063,0.295,-0.455
754064,0.340,-0.495
754065,0.350,-0.510
754066,0.355,-0.540
754067,0.340,-0.530
754068,0.345,-0.535
754069,0.365,-0.565
754070,0.350,-0.585
754071,0.380,-0.600
754072,0.385,-0.585
754073,0.405,-0.565
754074,0.420,-0.580
754075,0.415,-0.575
754076,0.440,-0.545
754077,0.420,-0.510
754078,0.385,-0.480
754079,0.370,-0.430
754080,0.365,-0.390
754081,0.335,-0.355
754082,0.350,-0.325
754083,0.315,-0.320
754084,0.325,-0.275
754085,0.320,-0.230
754086,0.290,-0.230
754087,0.245,-0.210
754088,0.210,-0.210
754089,0.170,-0.200
754090,0.160,-0.210
754091,0.170,-0.230
754092,0.175,-0.220
754093,0.130,-0.235
754094,0.125,-0.230
754095,0.130,-0.240
754096,0.100,-0.270
754097,0.085,-0.265
754098,0.050,-0.260
754099,0.035,-0.280
754100,0.050,-0.280
754101,0.055,-0.275
754102,0.050,-0.260
754103,0.060,-0.270
754104,0.090,-0.285
754105,0.050,-0.275
754106,0.065,-0.280
754107,0.060,-0.285
754108,0.035,-0.300
754109,0.065,-0.285
754110,0.060,-0.280
754111,0.060,-0.290
754112,0.065,-0.300
754113,0.085,-0.310
754114,0.075,-0.300
754115,0.060,-0.300
754116,0.065,-0.300
754117,0.050,-0.325
754118,0.050,-0.300
754119,0.030,-0.300
754120,0.045,-0.310
754121,0.065,-0.315
754122,0.055,-0.300
754123,0.055,-0.305
754124,0.060,-0.295
754125,0.075,-0.345
754126,0.075,-0.330
754127,0.070,-0.315
754128,0.040,-0.315
754129,0.035,-0.345
754130,0.045,-0.325
754131,0.045,-0.320
754132,0.045,-0.315
754133,0.075,-0.325
754134,0.030,-0.330
754135,0.040,-0.310
754136,0.020,-0.315
754137,0.040,-0.300
754138,0.015,-0.315
754139,0.000,-0.315
754140,0.005,-0.300
754141,0.045,-0.300
754142,0.055,-0.315
754143,0.075,-0.310
754144,0.025,-0.310
754145,0.020,-0.290
754146,0.045,-0.310
754147,0.025,-0.300
754148,0.030,-0.290
754149,0.010,-0.290
754150,0.025,-0.295
754151,0.015,-0.310
754152,0.040,-0.280
754153,0.040,-0.260
754154,0.045,-0.290
754155,0.045,-0.280
754156,-0.005,-0.270
754157,0.010,-0.265
754158,0.005,-0.300
754159,-0.015,-0.300
754160,-0.035,-0.265
754161,0.000,-0.255
754162,0.010,-0.270
754163,0.005,-0.275
754164,0.015,-0.290
754165,0.000,-0.265
754166,-0.020,-0.270
754167,-0.005,-0.265
754168,0.015,-0.255
754169,-0.005,-0.270
754170,0.000,-0.255
754171,0.000,-0.250
754172,0.005,-0.250
754173,0.000,-0.250
754174,-0.005,-0.245
754175,-0.005,-0.235
754176,-0.005,-0.240
754177,-0.030,-0.245
754178,-0.030,-0.220
754179,-0.010,-0.175
754180,-0.015,-0.150
754181,-0.015,-0.135
754182,0.005,-0.130
754183,0.030,-0.085
754184,0.025,-0.075
754185,0.035,-0.065
754186,0.035,-0.045
754187,0.020,-0.055
754188,0.055,-0.070
754189,0.060,-0.140
754190,0.060,-0.120
754191,0.070,-0.125
754192,0.055,-0.155
754193,0.030,-0.215
754194,0.015,-0.210
754195,0.005,-0.215
754196,-0.030,-0.210
754197,-0.050,-0.220
754198,-0.040,-0.260
754199,-0.045,-0.295
754200,-0.020,-0.300
754201,-0.020,-0.320
754202,-0.010,-0.315
754203,0.005,-0.290
754204,0.000,-0.295
754205,-0.030,-0.315
754206,-0.050,-0.330
754207,-0.040,-0.330
754208,-0.040,-0.320
754209,-0.040,-0.305
754210,-0.035,-0.290
754211,0.000,-0.310
754212,-0.040,-0.300
754213,-0.005,-0.320
754214,-0.015,-0.340
754215,-0.020,-0.290
754216,-0.070,-0.290
754217,-0.045,-0.305
754218,-0.055,-0.295
754219,-0.020,-0.310
754220,-0.010,-0.290
754221,-0.015,-0.265
754222,0.000,-0.235
754223,-0.005,-0.180
754224,-0.030,-0.045
754225,-0.025,0.145
754226,0.010,0.445
754227,0.050,0.815
754228,0.000,1.110
754229,-0.085,1.385
754230,-0.250,1.690
754231,-0.480,1.980
754232,-0.745,2.230
754233,-0.955,2.300
754234,-1.070,2.250
754235,-1.060,2.165
754236,-1.025,2.030
754237,-0.940,1.865
754238,-0.880,1.710
754239,-0.830,1.550
754240,-0.795,1.440
754241,-0.740,1.460
754242,-0.685,1.630
754243,-0.670,1.885
754244,-0.665,2.095
754245,-0.630,2.035
754246,-0.610,1.580
754247,-0.535,0.915
754248,-0.480,0.325
754249,-0.455,-0.060
754250,-0.375,-0.310
754251,-0.320,-0.450
754252,-0.300,-0.510
754253,-0.250,-0.550
754254,-0.215,-0.545
754255,-0.135,-0.525
754256,-0.085,-0.510
754257,-0.020,-0.520
754258,0.010,-0.525
754259,0.030,-0.540
754260,0.075,-0.510
754261,0.080,-0.500
754262,0.065,-0.525
754263,0.080,-0.480
754264,0.075,-0.475
754265,0.065,-0.460
754266,0.070,-0.480
754267,0.120,-0.460
754268,0.125,-0.435
754269,0.115,-0.450
754270,0.130,-0.435
754271,0.130,-0.445
754272,0.125,-0.450
754273,0.140,-0.440
754274,0.125,-0.435
754275,0.145,-0.420
754276,0.125,-0.420
754277,0.170,-0.415
754278,0.190,-0.440
754279,0.195,-0.455
754280,0.205,-0.445
754281,0.205,-0.450
754282,0.195,-0.465
754283,0.210,-0.485
754284,0.195,-0.475
754285,0.225,-0.515
754286,0.255,-0.535
754287,0.240,-0.560
754288,0.245,-0.580
754289,0.280,-0.570
754290,0.285,-0.600
754291,0.310,-0.640
754292,0.350,-0.635
754293,0.290,-0.635
754294,0.295,-0.615
754295,0.300,-0.630
754296,0.305,-0.610
754297,0.310,-0.595
754298,0.290,-0.570
754299,0.290,-0.530
754300,0.315,-0.515
754301,0.280,-0.480
754302,0.255,-0.425
754303,0.230,-0.370
754304,0.245,-0.355
754305,0.215,-0.325
754306,0.205,-0.285
754307,0.185,-0.275
754308,0.175,-0.285
754309,0.170,-0.235
754310,0.120,-0.240
754311,0.110,-0.260
754312,0.095,-0.270
754313,0.055,-0.270
754314,0.045,-0.250
754315,-0.010,-0.250
754316,0.010,-0.280
754317,0.010,-0.280
754318,0.000,-0.265
754319,0.000,-0.270
754320,0.005,-0.290
754321,-0.025,-0.295
754322,-0.015,-0.300
754323,-0.015,-0.285
754324,-0.025,-0.300
754325,-0.015,-0.300
754326,-0.015,-0.290
754327,-0.020,-0.305
754328,-0.025,-0.320
754329,-0.035,-0.310
754330,-0.055,-0.320
754331,-0.055,-0.320
754332,-0.025,-0.310
754333,-0.045,-0.345
754334,-0.025,-0.350
754335,-0.045,-0.335
754336,-0.040,-0.335
754337,0.000,-0.355
754338,-0.030,-0.360
754339,-0.050,-0.330
754340,-0.015,-0.360
754341,-0.015,-0.375
754342,-0.020,-0.360
754343,-0.035,-0.380
754344,-0.030,-0.370
754345,-0.030,-0.365
754346,-0.020,-0.395
754347,-0.025,-0.360
754348,-0.020,-0.385
754349,-0.005,-0.385
754350,0.000,-0.385
754351,-0.040,-0.360
754352,-0.060,-0.385
754353,-0.045,-0.380
754354,-0.070,-0.385
754355,-0.040,-0.380
754356,-0.035,-0.365
754357,-0.035,-0.340
754358,-0.055,-0.375
754359,-0.055,-0.365
754360,-0.055,-0.365
754361,-0.055,-0.350
754362,-0.080,-0.350
754363,-0.055,-0.350
754364,-0.035,-0.350
754365,-0.025,-0.340
754366,-0.045,-0.335
754367,-0.035,-0.340
754368,-0.045,-0.310
754369,-0.055,-0.320
754370,-0.075,-0.345
754371,-0.040,-0.340
754372,-0.025,-0.310
754373,-0.030,-0.310
754374,-0.020,-0.315
754375,0.005,-0.305
754376,-0.005,-0.315
754377,-0.030,-0.305
754378,-0.005,-0.305
754379,-0.010,-0.305
754380,-0.020,-0.310
754381,0.005,-0.290
754382,0.010,-0.315
754383,0.030,-0.305
754384,0.010,-0.290
754385,0.030,-0.280
754386,0.055,-0.290
754387,0.065,-0.300
754388,0.025,-0.300
754389,0.010,-0.300
754390,0.015,-0.290
754391,0.025,-0.290
754392,0.045,-0.285
754393,0.060,-0.275
754394,0.085,-0.270
754395,0.070,-0.250
754396,0.055,-0.210
754397,0.045,-0.165
754398,0.035,-0.140
754399,0.055,-0.130
754400,0.055,-0.125
754401,0.065,-0.055
754402,0.075,-0.055
754403,0.115,-0.055
754404,0.125,-0.060
754405,0.115,-0.090
754406,0.105,-0.125
754407,0.105,-0.145
754408,0.085,-0.160
754409,0.060,-0.165
754410,0.070,-0.190
754411,0.080,-0.200
754412,0.095,-0.220
754413,0.065,-0.240
754414,0.055,-0.260
754415,0.050,-0.315
754416,0.035,-0.335
754417,0.045,-0.345
754418,0.045,-0.315
754419,0.020,-0.330
754420,0.035,-0.345
754421,0.035,-0.320
754422,0.055,-0.320
754423,0.080,-0.310
754424,0.055,-0.320
754425,0.030,-0.310
754426,0.015,-0.300
754427,0.000,-0.310
754428,0.010,-0.315
754429,0.030,-0.320
754430,0.035,-0.295
754431,0.070,-0.310
754432,0.040,-0.320
754433,0.060,-0.305
754434,0.065,-0.295
754435,0.080,-0.270
754436,0.055,-0.270
754437,0.050,-0.260
754438,0.040,-0.205
754439,0.060,-0.090
754440,0.085,0.075
754441,0.090,0.310
754442,0.135,0.690
754443,0.130,0.980
754444,0.015,1.220
754445,-0.110,1.520
754446,-0.370,1.820
754447,-0.665,2.050
754448,-0.845,2.090
754449,-0.975,2.065
754450,-0.960,2.000
754451,-0.890,1.855
754452,-0.825,1.665
754453,-0.765,1.500
754454,-0.750,1.370
754455,-0.705,1.300
754456,-0.635,1.405
754457,-0.595,1.650
754458,-0.545,1.935
754459,-0.505,1.915
754460,-0.435,1.440
754461,-0.410,0.715
754462,-0.340,0.085
754463,-0.330,-0.275
754464,-0.275,-0.475
754465,-0.230,-0.495
754466,-0.150,-0.505
754467,-0.075,-0.505
754468,-0.005,-0.495
754469,0.060,-0.475
754470,0.100,-0.455
754471,0.155,-0.455
754472,0.175,-0.440
754473,0.165,-0.455
754474,0.200,-0.425
754475,0.210,-0.435
754476,0.225,-0.435
754477,0.230,-0.405
754478,0.250,-0.425
754479,0.250,-0.410
754480,0.220,-0.400
754481,0.215,-0.410
754482,0.205,-0.405
754483,0.235,-0.385
754484,0.235,-0.385
754485,0.220,-0.395
754486,0.230,-0.400
754487,0.225,-0.385
754488,0.260,-0.390
754489,0.245,-0.390
754490,0.270,-0.405
754491,0.240,-0.400
754492,0.220,-0.410
754493,0.215,-0.425
754494,0.260,-0.430
754495,0.280,-0.455
754496,0.315,-0.445
754497,0.310,-0.475
754498,0.320,-0.480
754499,0.340,-0.510
754500,0.330,-0.530
754501,0.320,-0.555
754502,0.315,-0.575
754503,0.330,-0.575
754504,0.360,-0.565
754505,0.375,-0.615
754506,0.385,-0.610
754507,0.395,-0.630
754508,0.395,-0.605
754509,0.385,-0.605
754510,0.400,-0.560
754511,0.365,-0.550
754512,0.345,-0.505
754513,0.330,-0.445
754514,0.315,-0.440
754515,0.320,-0.400
754516,0.300,-0.350
754517,0.285,-0.290
754518,0.290,-0.285
754519,0.250,-0.265
754520,0.205,-0.240
754521,0.180,-0.205
754522,0.160,-0.215
754523,0.150,-0.195
754524,0.155,-0.200
754525,0.130,-0.210
754526,0.100,-0.220
754527,0.085,-0.230
754528,0.065,-0.245
754529,0.050,-0.230
754530,0.045,-0.235
754531,0.020,-0.245
754532,0.020,-0.255
754533,0.010,-0.255
754534,0.025,-0.235
754535,0.020,-0.255
754536,0.000,-0.275
754537,-0.010,-0.260
754538,-0.010,-0.250
754539,0.000,-0.280
754540,-0.010,-0.270
754541,-0.020,-0.275
754542,-0.030,-0.285
754543,-0.015,-0.315
754544,0.000,-0.310
754545,-0.005,-0.295
754546,0.015,-0.300
754547,0.000,-0.320
754548,-0.025,-0.300
754549,-0.045,-0.310
754550,-0.035,-0.310
754551,-0.025,-0.305
754552,0.010,-0.315
754553,0.000,-0.315
754554,0.005,-0.320
754555,0.000,-0.345
754556,-0.020,-0.340
754557,-0.010,-0.320
754558,-0.020,-0.315
754559,-0.035,-0.335
754560,-0.030,-0.315
754561,-0.015,-0.320
754562,0.000,-0.330
754563,0.005,-0.350
754564,-0.025,-0.325
754565,-0.030,-0.330
754566,-0.025,-0.310
754567,-0.015,-0.340
754568,-0.040,-0.320
754569,-0.050,-0.315
754570,-0.020,-0.315
754571,0.000,-0.300
754572,-0.010,-0.325
754573,-0.025,-0.295
754574,0.000,-0.305
754575,-0.030,-0.300
754576,-0.040,-0.315
754577,-0.070,-0.290
754578,-0.065,-0.305
754579,-0.030,-0.310
754580,-0.040,-0.305
754581,-0.040,-0.305
754582,-0.045,-0.290
754583,-0.050,-0.290
754584,-0.040,-0.300
754585,-0.050,-0.300
754586,-0.060,-0.295
754587,-0.055,-0.290
754588,-0.060,-0.300
754589,-0.045,-0.275
754590,-0.005,-0.265
754591,0.015,-0.300
754592,-0.020,-0.275
754593,-0.025,-0.260
754594,-0.040,-0.265
754595,-0.060,-0.270
754596,-0.065,-0.290
754597,-0.060,-0.275
754598,-0.045,-0.265
754599,-0.045,-0.275
754600,-0.025,-0.275
754601,-0.035,-0.275
754602,-0.020,-0.235
754603,-0.045,-0.205
754604,-0.065,-0.165
754605,-0.075,-0.170
754606,-0.070,-0.140
754607,-0.045,-0.105
754608,-0.025,-0.065
754609,0.005,-0.065
754610,0.000,-0.050
754611,0.000,-0.035
754612,-0.020,-0.060
754613,0.005,-0.100
754614,-0.020,-0.130
754615,-0.045,-0.120
754616,-0.040,-0.140
754617,-0.045,-0.190
754618,-0.015,-0.190
754619,-0.020,-0.205
754620,-0.040,-0.210
754621,-0.075,-0.230
754622,-0.070,-0.265
754623,-0.065,-0.270
754624,-0.070,-0.305
754625,-0.075,-0.315
754626,-0.095,-0.300
754627,-0.090,-0.295
754628,-0.075,-0.285
754629,-0.040,-0.285
754630,-0.060,-0.280
754631,-0.040,-0.290
754632,-0.060,-0.295
754633,-0.070,-0.305
754634,-0.095,-0.300
754635,-0.100,-0.280
754636,-0.085,-0.285
754637,-0.095,-0.290
754638,-0.070,-0.290
754639,-0.065,-0.295
754640,-0.090,-0.290
754641,-0.115,-0.290
754642,-0.100,-0.300
754643,-0.115,-0.285
754644,-0.105,-0.290
754645,-0.100,-0.255
754646,-0.120,-0.225
754647,-0.090,-0.110
754648,-0.060,0.035
754649,-0.040,0.255
754650,-0.045,0.570
754651,-0.030,0.860
754652,-0.115,1.055
754653,-0.245,1.295
754654,-0.475,1.565
754655,-0.725,1.845
754656,-0.950,1.955
754657,-1.110,1.935
754658,-1.150,1.900
754659,-1.125,1.745
754660,-1.075,1.555
754661,-1.050,1.390
754662,-1.020,1.205
754663,-0.960,1.070
754664,-0.885,1.060
754665,-0.845,1.195
754666,-0.775,1.490
754667,-0.720,1.655
754668,-0.670,1.465
754669,-0.640,0.895
754670,-0.615,0.200
754671,-0.560,-0.280
754672,-0.515,-0.505
754673,-0.450,-0.565
754674,-0.380,-0.530
754675,-0.295,-0.510
754676,-0.190,-0.475
754677,-0.105,-0.415
754678,-0.070,-0.405
754679,0.005,-0.430
754680,0.055,-0.410
754681,0.065,-0.390
754682,0.105,-0.390
754683,0.130,-0.395
754684,0.160,-0.405
754685,0.140,-0.370
754686,0.130,-0.360
754687,0.155,-0.355
754688,0.165,-0.335
754689,0.165,-0.350
754690,0.140,-0.325
754691,0.150,-0.355
754692,0.150,-0.360
754693,0.155,-0.345
754694,0.170,-0.330
754695,0.190,-0.360
754696,0.190,-0.350
754697,0.185,-0.340
754698,0.200,-0.340
754699,0.185,-0.345
754700,0.195,-0.365
754701,0.210,-0.370
754702,0.220,-0.370
754703,0.240,-0.370
754704,0.260,-0.385
754705,0.265,-0.405
754706,0.255,-0.425
754707,0.280,-0.440
754708,0.285,-0.450
754709,0.315,-0.480
754710,0.310,-0.495
754711,0.325,-0.490
754712,0.350,-0.520
754713,0.355,-0.525
754714,0.350,-0.530
754715,0.355,-0.530
754716,0.365,-0.535
754717,0.355,-0.515
754718,0.330,-0.495
754719,0.330,-0.480
754720,0.325,-0.470
754721,0.345,-0.445
754722,0.325,-0.400
754723,0.310,-0.365
754724,0.320,-0.310
754725,0.275,-0.305
754726,0.235,-0.245
754727,0.250,-0.230
754728,0.230,-0.210
754729,0.195,-0.180
754730,0.190,-0.160
754731,0.145,-0.155
754732,0.175,-0.175
754733,0.165,-0.165
754734,0.135,-0.175
754735,0.090,-0.185
754736,0.080,-0.185
754737,0.075,-0.200
754738,0.030,-0.200
754739,0.005,-0.200
754740,0.030,-0.215
754741,0.040,-0.230
754742,0.040,-0.225
754743,0.020,-0.210
754744,0.000,-0.240
754745,0.005,-0.245
754746,-0.020,-0.260
754747,0.000,-0.265
754748,0.000,-0.245
754749,-0.020,-0.250
754750,0.010,-0.280
754751,0.005,-0.275
754752,0.015,-0.280
754753,0.000,-0.270
754754,0.000,-0.310
754755,-0.025,-0.290
754756,-0.015,-0.285
754757,-0.025,-0.285
754758,-0.020,-0.300
754759,-0.025,-0.310
754760,-0.035,-0.310
754761,0.000,-0.305
754762,0.020,-0.315
754763,-0.025,-0.315
754764,-0.015,-0.320
754765,-0.055,-0.320
754766,-0.050,-0.310
754767,-0.040,-0.325
754768,-0.030,-0.330
754769,-0.025,-0.330
754770,0.000,-0.330
754771,0.000,-0.345
754772,-0.010,-0.325
754773,-0.015,-0.310
754774,-0.015,-0.320
754775,-0.015,-0.310
754776,-0.050,-0.300
754777,-0.020,-0.310
754778,-0.040,-0.315
754779,-0.010,-0.340
754780,0.000,-0.335
754781,0.000,-0.305
754782,0.000,-0.320
754783,-0.020,-0.320
754784,-0.025,-0.315
754785,-0.025,-0.310
754786,-0.040,-0.310
754787,-0.045,-0.320
754788,-0.060,-0.305
754789,-0.015,-0.305
754790,0.000,-0.315
754791,0.005,-0.315
754792,-0.025,-0.310
754793,-0.040,-0.305
754794,-0.020,-0.290
754795,-0.040,-0.320
754796,-0.055,-0.310
754797,-0.030,-0.310
754798,-0.005,-0.290
754799,-0.005,-0.295
754800,-0.015,-0.305
754801,0.005,-0.285
754802,-0.005,-0.305
754803,-0.025,-0.315
754804,-0.055,-0.290
754805,-0.045,-0.290
754806,-0.055,-0.275
754807,-0.025,-0.290
754808,-0.010,-0.295
754809,-0.020,-0.280
754810,-0.025,-0.285
754811,-0.020,-0.295
754812,-0.010,-0.285
754813,-0.030,-0.280
754814,-0.040,-0.260
754815,-0.040,-0.230
754816,-0.030,-0.200
754817,-0.025,-0.185
754818,0.000,-0.160
754819,0.000,-0.140
754820,0.035,-0.110
754821,0.000,-0.115
754822,0.005,-0.105
754823,0.010,-0.085
754824,0.005,-0.095
754825,0.015,-0.145
754826,0.035,-0.165
754827,0.040,-0.185
754828,0.040,-0.175
754829,0.035,-0.190
754830,0.020,-0.245
754831,0.000,-0.235
754832,-0.020,-0.235
754833,-0.045,-0.250
754834,-0.070,-0.280
754835,-0.065,-0.320
754836,-0.025,-0.345
754837,-0.005,-0.360
754838,-0.020,-0.340
754839,-0.020,-0.345
754840,-0.015,-0.345
754841,-0.045,-0.350
754842,-0.060,-0.360
754843,-0.055,-0.345
754844,-0.060,-0.375
754845,-0.065,-0.360
754846,-0.055,-0.355
754847,-0.035,-0.340
754848,-0.010,-0.335
754849,-0.025,-0.325
754850,-0.020,-0.345
754851,-0.040,-0.350
754852,-0.065,-0.310
754853,-0.075,-0.310
754854,-0.035,-0.335
754855,-0.030,-0.330
754856,-0.025,-0.305
754857,-0.010,-0.300
754858,-0.030,-0.255
754859,-0.030,-0.205
754860,-0.030,-0.105
754861,-0.035,0.075
754862,-0.005,0.350
754863,0.020,0.680
754864,0.005,0.975
754865,-0.090,1.220
754866,-0.205,1.475
754867,-0.420,1.765
754868,-0.680,2.030
754869,-0.910,2.110
754870,-1.030,2.075
754871,-1.060,2.000
754872,-1.030,1.840
754873,-0.980,1.660
754874,-0.920,1.485
754875,-0.850,1.315
754876,-0.820,1.170
754877,-0.735,1.205
754878,-0.705,1.405
754879,-0.690,1.675
754880,-0.635,1.880
754881,-0.620,1.735
754882,-0.565,1.165
754883,-0.495,0.460
754884,-0.420,-0.085
754885,-0.355,-0.385
754886,-0.315,-0.500
754887,-0.265,-0.555
754888,-0.205,-0.565
754889,-0.130,-0.555
754890,-0.060,-0.500
754891,-0.025,-0.465
754892,0.010,-0.470
754893,0.050,-0.480
754894,0.095,-0.460
754895,0.145,-0.445
754896,0.145,-0.430
754897,0.140,-0.440
754898,0.160,-0.415
754899,0.150,-0.395
754900,0.160,-0.395
754901,0.170,-0.420
754902,0.145,-0.395
754903,0.150,-0.385
754904,0.155,-0.360
754905,0.175,-0.390
754906,0.160,-0.370
754907,0.155,-0.355
754908,0.145,-0.360
754909,0.150,-0.370
754910,0.135,-0.360
754911,0.160,-0.365
754912,0.220,-0.375
754913,0.220,-0.390
754914,0.220,-0.385
754915,0.220,-0.395
754916,0.225,-0.410
754917,0.230,-0.420
754918,0.215,-0.445
754919,0.230,-0.470
754920,0.235,-0.475
754921,0.260,-0.495
754922,0.275,-0.510
754923,0.305,-0.530
754924,0.315,-0.540
754925,0.315,-0.555
754926,0.305,-0.565
754927,0.310,-0.595
754928,0.305,-0.600
754929,0.330,-0.580
754930,0.305,-0.605
754931,0.305,-0.585
754932,0.340,-0.565
754933,0.340,-0.570
754934,0.340,-0.540
754935,0.295,-0.485
754936,0.285,-0.440
754937,0.280,-0.415
754938,0.275,-0.370
754939,0.245,-0.320
754940,0.230,-0.315
754941,0.230,-0.255
754942,0.200,-0.240
754943,0.175,-0.210
754944,0.155,-0.215
754945,0.170,-0.195
754946,0.125,-0.190
754947,0.095,-0.200
754948,0.050,-0.200
754949,0.000,-0.190
754950,0.015,-0.225
754951,0.010,-0.230
754952,0.015,-0.220
754953,0.015,-0.250
754954,0.015,-0.240
754955,0.000,-0.265
754956,-0.010,-0.250
754957,-0.035,-0.250
754958,-0.065,-0.230
754959,-0.040,-0.240
754960,-0.040,-0.270
754961,-0.060,-0.255
754962,-0.020,-0.270
754963,-0.020,-0.265
754964,-0.010,-0.295
754965,-0.020,-0.285
754966,-0.055,-0.305
754967,-0.030,-0.280
754968,-0.040,-0.290
754969,-0.065,-0.305
754970,-0.030,-0.300
754971,-0.055,-0.310
754972,-0.030,-0.300
754973,-0.020,-0.320
754974,-0.040,-0.340
754975,-0.040,-0.340
754976,-0.050,-0.330
754977,-0.075,-0.345
754978,-0.085,-0.330
754979,-0.060,-0.325
754980,-0.075,-0.330
754981,-0.050,-0.360
754982,-0.025,-0.360
754983,-0.040,-0.340
754984,-0.060,-0.380
754985,-0.040,-0.360
754986,-0.080,-0.365
754987,-0.090,-0.375
754988,-0.100,-0.360
754989,-0.115,-0.370
754990,-0.125,-0.345
754991,-0.115,-0.340
754992,-0.115,-0.360
754993,-0.110,-0.350
754994,-0.110,-0.355
754995,-0.120,-0.380
754996,-0.120,-0.375
754997,-0.130,-0.365
754998,-0.145,-0.360
754999,-0.155,-0.370
755000,-0.120,-0.370
755001,-0.110,-0.360
755002,-0.120,-0.340
755003,-0.135,-0.355
755004,-0.120,-0.370
755005,-0.130,-0.340
755006,-0.150,-0.345
755007,-0.160,-0.335
755008,-0.190,-0.345
755009,-0.140,-0.310
755010,-0.150,-0.320
755011,-0.130,-0.310
755012,-0.135,-0.320
755013,-0.145,-0.340
755014,-0.155,-0.320
755015,-0.150,-0.320
755016,-0.150,-0.340
755017,-0.160,-0.340
755018,-0.180,-0.355
755019,-0.170,-0.340
755020,-0.185,-0.340
755021,-0.135,-0.320
755022,-0.120,-0.330
755023,-0.165,-0.315
755024,-0.160,-0.335
755025,-0.175,-0.335
755026,-0.200,-0.315
755027,-0.225,-0.310
755028,-0.210,-0.325
755029,-0.160,-0.305
755030,-0.160,-0.340
755031,-0.150,-0.330
755032,-0.170,-0.330
755033,-0.160,-0.270
755034,-0.155,-0.250
755035,-0.160,-0.200
755036,-0.175,-0.180
755037,-0.160,-0.170
755038,-0.165,-0.155
755039,-0.160,-0.115
755040,-0.110,-0.120
755041,-0.080,-0.130
755042,-0.080,-0.120
755043,-0.105,-0.160
755044,-0.115,-0.190
755045,-0.105,-0.210
755046,-0.115,-0.200
755047,-0.140,-0.200
755048,-0.155,-0.210
755049,-0.120,-0.260
755050,-0.135,-0.300
755051,-0.155,-0.285
755052,-0.150,-0.285
755053,-0.170,-0.340
755054,-0.190,-0.370
755055,-0.205,-0.380
755056,-0.200,-0.360
755057,-0.205,-0.380
755058,-0.205,-0.375
755059,-0.180,-0.365
755060,-0.190,-0.365
755061,-0.175,-0.360
755062,-0.190,-0.365
755063,-0.200,-0.350
755064,-0.220,-0.355
755065,-0.260,-0.360
755066,-0.230,-0.375
755067,-0.235,-0.365
755068,-0.205,-0.375
755069,-0.200,-0.340
755070,-0.200,-0.340
755071,-0.195,-0.365
755072,-0.200,-0.340
755073,-0.190,-0.335
755074,-0.220,-0.335
755075,-0.215,-0.350
755076,-0.215,-0.330
755077,-0.210,-0.270
755078,-0.220,-0.200
755079,-0.215,-0.055
755080,-0.180,0.155
755081,-0.130,0.495
755082,-0.120,0.900
755083,-0.165,1.200
755084,-0.280,1.470
755085,-0.450,1.780
755086,-0.705,2.095
755087,-0.950,2.315
755088,-1.130,2.400
755089,-1.215,2.370
755090,-1.235,2.295
755091,-1.180,2.150
755092,-1.075,1.980
755093,-1.055,1.830
755094,-1.030,1.705
755095,-1.005,1.615
755096,-0.965,1.630
755097,-0.905,1.830
755098,-0.875,2.110
755099,-0.825,2.355
755100,-0.775,2.250
755101,-0.735,1.770
755102,-0.710,1.055
755103,-0.670,0.430
755104,-0.610,-0.030
755105,-0.550,-0.305
755106,-0.520,-0.485
755107,-0.440,-0.590
755108,-0.345,-0.635
755109,-0.270,-0.620
755110,-0.215,-0.600
755111,-0.170,-0.605
755112,-0.150,-0.605
755113,-0.155,-0.605
755114,-0.155,-0.620
755115,-0.190,-0.600
755116,-0.170,-0.590
755117,-0.140,-0.575
755118,-0.130,-0.580
755119,-0.130,-0.570
755120,-0.095,-0.560
755121,-0.095,-0.550
755122,-0.080,-0.550
755123,-0.070,-0.565
755124,-0.085,-0.540
755125,-0.085,-0.540
755126,-0.100,-0.530
755127,-0.115,-0.530
755128,-0.065,-0.525
755129,-0.040,-0.495
755130,-0.050,-0.495
755131,-0.050,-0.500
755132,-0.055,-0.510
755133,-0.050,-0.485
755134,-0.020,-0.490
755135,-0.040,-0.510
755136,-0.030,-0.525
755137,-0.030,-0.520
755138,0.000,-0.520
755139,0.025,-0.545
755140,0.040,-0.540
755141,0.055,-0.575
755142,0.030,-0.605
755143,0.040,-0.605
755144,0.015,-0.615
755145,0.025,-0.660
755146,0.040,-0.660
755147,0.085,-0.640
755148,0.070,-0.665
755149,0.080,-0.680
755150,0.065,-0.690
755151,0.040,-0.660
755152,0.045,-0.640
755153,0.020,-0.640
755154,0.010,-0.610
755155,-0.025,-0.570
755156,-0.155,-0.555
755157,-0.300,-0.520
755158,-0.320,-0.460
755159,-0.350,-0.430
755160,-0.375,-0.395
755161,-0.410,-0.360
755162,-0.450,-0.345
755163,-0.495,-0.320
755164,-0.530,-0.275
755165,-0.540,-0.260
755166,-0.590,-0.245
755167,-0.690,-0.270
755168,-0.795,-0.270
755169,-0.840,-0.270
755170,-0.865,-0.285
755171,-0.870,-0.295
755172,-0.900,-0.285
755173,-0.945,-0.270
755174,-0.950,-0.290
755175,-0.970,-0.295
755176,-1.000,-0.290
755177,-0.985,-0.295
755178,-1.000,-0.295
755179,-0.990,-0.295
755180,-1.000,-0.295
755181,-0.985,-0.335
755182,-0.980,-0.310
755183,-1.010,-0.340
755184,-1.020,-0.330
755185,-1.000,-0.310
755186,-1.015,-0.315
755187,-1.010,-0.330
755188,-0.985,-0.365
755189,-0.945,-0.335
755190,-0.990,-0.340
755191,-0.985,-0.360
755192,-0.980,-0.345
755193,-0.970,-0.345
755194,-0.950,-0.350
755195,-0.960,-0.360
755196,-0.935,-0.350
755197,-0.920,-0.365
755198,-0.780,-0.340
755199,-0.530,-0.355
755200,-0.390,-0.365
755201,-0.340,-0.380
755202,-0.375,-0.370
755203,-0.380,-0.365
755204,-0.350,-0.375
755205,-0.340,-0.395
755206,-0.305,-0.385
755207,-0.300,-0.375
755208,-0.280,-0.375
755209,-0.255,-0.380
755210,-0.245,-0.375
755211,-0.260,-0.360
755212,-0.255,-0.365
755213,-0.280,-0.370
755214,-0.280,-0.370
755215,-0.250,-0.355
755216,-0.235,-0.345
755217,-0.200,-0.350
755218,-0.190,-0.380
755219,-0.210,-0.365
755220,-0.220,-0.360
755221,-0.230,-0.365
755222,-0.255,-0.370
755223,-0.250,-0.350
755224,-0.240,-0.340
755225,-0.260,-0.330
755226,-0.225,-0.320
755227,-0.205,-0.325
755228,-0.220,-0.330
755229,-0.250,-0.315
755230,-0.230,-0.330
755231,-0.220,-0.320
755232,-0.245,-0.325
755233,-0.220,-0.305
755234,-0.220,-0.300
755235,-0.190,-0.320
755236,-0.210,-0.305
755237,-0.210,-0.295
755238,-0.185,-0.305
755239,-0.200,-0.320
755240,-0.220,-0.310
755241,-0.200,-0.305
755242,-0.200,-0.290
755243,-0.195,-0.320
755244,-0.215,-0.320
755245,-0.190,-0.295
755246,-0.190,-0.305
755247,-0.170,-0.290
755248,-0.155,-0.310
755249,-0.185,-0.300
755250,-0.180,-0.270
755251,-0.180,-0.250
755252,-0.185,-0.225
755253,-0.200,-0.220
755254,-0.180,-0.205
755255,-0.145,-0.160
755256,-0.140,-0.140
755257,-0.105,-0.130
755258,-0.120,-0.110
755259,-0.100,-0.095
755260,-0.090,-0.115
755261,-0.125,-0.145
755262,-0.135,-0.175
755263,-0.120,-0.165
755264,-0.135,-0.165
755265,-0.120,-0.180
755266,-0.140,-0.215
755267,-0.135,-0.205
755268,-0.150,-0.245
755269,-0.170,-0.265
755270,-0.205,-0.290
755271,-0.190,-0.310
755272,-0.175,-0.360
755273,-0.160,-0.350
755274,-0.110,-0.350
755275,-0.060,-0.330
755276,-0.030,-0.340
755277,-0.025,-0.335
755278,-0.040,-0.360
755279,-0.040,-0.330
755280,-0.050,-0.335
755281,-0.040,-0.360
755282,-0.055,-0.345
755283,-0.050,-0.340
755284,-0.035,-0.330
755285,-0.010,-0.335
755286,-0.045,-0.335
755287,-0.055,-0.355
755288,-0.035,-0.320
755289,-0.020,-0.330
755290,-0.060,-0.320
755291,-0.070,-0.320
755292,-0.080,-0.325
755293,-0.055,-0.305
755294,-0.045,-0.300
755295,-0.020,-0.270
755296,-0.020,-0.150
755297,-0.010,-0.010
755298,-0.005,0.190
755299,0.020,0.520
755300,0.005,0.825
755301,-0.060,1.065
755302,-0.185,1.280
755303,-0.405,1.550
755304,-0.675,1.765
755305,-0.870,1.895
755306,-1.025,1.890
755307,-1.060,1.860
755308,-1.005,1.800
755309,-0.960,1.650
755310,-0.905,1.495
755311,-0.855,1.380
755312,-0.820,1.275
755313,-0.745,1.210
755314,-0.680,1.300
755315,-0.655,1.545
755316,-0.635,1.830
755317,-0.580,1.870
755318,-0.540,1.445
755319,-0.515,0.755
755320,-0.485,0.115
755321,-0.415,-0.220
755322,-0.380,-0.420
755323,-0.290,-0.460
755324,-0.225,-0.510
755325,-0.165,-0.535
755326,-0.105,-0.535
755327,-0.040,-0.490
755328,0.005,-0.460
755329,0.070,-0.485
755330,0.070,-0.480
755331,0.110,-0.475
755332,0.135,-0.470
755333,0.140,-0.460
755334,0.155,-0.450
755335,0.175,-0.450
755336,0.160,-0.440
755337,0.135,-0.455
755338,0.140,-0.450
755339,0.165,-0.430
755340,0.155,-0.425
755341,0.155,-0.410
755342,0.185,-0.415
755343,0.225,-0.410
755344,0.210,-0.395
755345,0.210,-0.420
755346,0.210,-0.415
755347,0.190,-0.415
755348,0.180,-0.395
755349,0.195,-0.415
755350,0.190,-0.415
755351,0.205,-0.425
755352,0.235,-0.430
755353,0.260,-0.430
755354,0.260,-0.455
755355,0.280,-0.440
755356,0.260,-0.470
755357,0.285,-0.470
755358,0.270,-0.495
755359,0.270,-0.520
755360,0.300,-0.510
755361,0.310,-0.525
755362,0.315,-0.540
755363,0.340,-0.575
755364,0.360,-0.590
755365,0.375,-0.580
755366,0.360,-0.600
755367,0.350,-0.590
755368,0.360,-0.580
755369,0.355,-0.555
755370,0.345,-0.545
755371,0.360,-0.520
755372,0.365,-0.485
755373,0.350,-0.440
755374,0.315,-0.400
755375,0.295,-0.385
755376,0.270,-0.340
755377,0.260,-0.305
755378,0.210,-0.280
755379,0.210,-0.250
755380,0.215,-0.240
755381,0.210,-0.215
755382,0.185,-0.185
755383,0.160,-0.180
755384,0.135,-0.215
755385,0.120,-0.200
755386,0.105,-0.195
755387,0.095,-0.195
755388,0.080,-0.210
755389,0.060,-0.220
755390,0.035,-0.215
755391,0.060,-0.205
755392,0.055,-0.210
755393,0.065,-0.225
755394,0.035,-0.215
755395,0.010,-0.235
755396,0.015,-0.250
755397,0.010,-0.245
755398,-0.015,-0.245
755399,-0.005,-0.240
755400,0.020,-0.250
755401,0.030,-0.260
755402,0.030,-0.245
755403,0.040,-0.260
755404,0.020,-0.260
755405,0.020,-0.280
755406,0.010,-0.275
755407,-0.005,-0.260
755408,0.000,-0.280
755409,0.000,-0.295
755410,0.030,-0.290
755411,0.030,-0.275
755412,0.030,-0.290
755413,0.000,-0.295
755414,-0.010,-0.295
755415,-0.005,-0.285
755416,-0.010,-0.295
755417,0.015,-0.275
755418,-0.015,-0.280
755419,-0.020,-0.280
755420,0.000,-0.275
755421,0.025,-0.280
755422,0.025,-0.300
755423,0.010,-0.280
755424,-0.015,-0.285
755425,-0.045,-0.285
755426,-0.010,-0.295
755427,-0.010,-0.305
755428,-0.010,-0.270
755429,0.000,-0.285
755430,0.035,-0.270
755431,0.020,-0.275
755432,0.020,-0.245
755433,0.025,-0.270
755434,0.005,-0.265
755435,0.000,-0.280
755436,-0.010,-0.270
755437,-0.005,-0.270
755438,0.010,-0.285
755439,0.000,-0.265
755440,0.020,-0.240
755441,0.030,-0.255
755442,0.020,-0.245
755443,0.000,-0.260
755444,-0.020,-0.250
755445,-0.010,-0.240
755446,-0.020,-0.250
755447,-0.010,-0.250
755448,-0.010,-0.230
755449,0.020,-0.240
755450,0.020,-0.220
755451,0.020,-0.245
755452,0.000,-0.230
755453,0.000,-0.245
755454,0.030,-0.245
755455,0.000,-0.255
755456,0.015,-0.240
755457,0.010,-0.240
755458,0.015,-0.250
755459,0.050,-0.260
755460,0.050,-0.225
755461,0.025,-0.230
755462,0.030,-0.215
755463,0.020,-0.165
755464,0.000,-0.145
755465,0.015,-0.110
755466,0.030,-0.125
755467,0.070,-0.075
755468,0.090,-0.065
755469,0.080,-0.055
755470,0.080,-0.040
755471,0.080,-0.055
755472,0.060,-0.095
755473,0.055,-0.120
755474,0.035,-0.130
755475,0.025,-0.145
755476,0.035,-0.185
755477,0.040,-0.170
755478,0.030,-0.170
755479,-0.005,-0.190
755480,-0.020,-0.210
755481,-0.030,-0.245
755482,-0.060,-0.275
755483,-0.060,-0.295
755484,-0.030,-0.295
755485,-0.040,-0.280
755486,-0.050,-0.310
755487,-0.020,-0.300
755488,-0.020,-0.295
755489,-0.030,-0.295
755490,-0.030,-0.300
755491,-0.030,-0.310
755492,-0.055,-0.290
755493,-0.080,-0.280
755494,-0.070,-0.295
755495,-0.050,-0.315
755496,-0.040,-0.300
755497,-0.040,-0.290
755498,-0.025,-0.290
755499,-0.030,-0.295
755500,-0.045,-0.300
755501,-0.040,-0.295
755502,-0.050,-0.290
755503,-0.075,-0.270
755504,-0.075,-0.245
755505,-0.040,-0.175
755506,-0.045,-0.065
755507,-0.050,0.085
755508,-0.020,0.305
755509,0.000,0.590
755510,-0.050,0.810
755511,-0.160,0.950
755512,-0.315,1.190
755513,-0.585,1.450
755514,-0.845,1.655
755515,-1.040,1.685
755516,-1.110,1.635
755517,-1.095,1.595
755518,-1.040,1.475
755519,-0.985,1.300
755520,-0.935,1.170
755521,-0.905,1.030
755522,-0.830,0.925
755523,-0.775,0.940
755524,-0.730,1.130
755525,-0.680,1.385
755526,-0.665,1.435
755527,-0.595,1.095
755528,-0.570,0.485
755529,-0.505,-0.090
755530,-0.465,-0.390
755531,-0.435,-0.510
755532,-0.365,-0.525
755533,-0.270,-0.490
755534,-0.190,-0.455
755535,-0.125,-0.445
755536,-0.025,-0.445
755537,0.020,-0.415
755538,0.020,-0.405
755539,0.060,-0.405
755540,0.060,-0.400
755541,0.090,-0.410
755542,0.110,-0.375
755543,0.120,-0.380
755544,0.145,-0.375
755545,0.140,-0.365
755546,0.135,-0.365
755547,0.130,-0.360
755548,0.115,-0.365
755549,0.125,-0.370
755550,0.150,-0.350
755551,0.170,-0.355
755552,0.170,-0.350
755553,0.140,-0.360
755554,0.145,-0.340
755555,0.145,-0.345
755556,0.160,-0.350
755557,0.175,-0.360
755558,0.180,-0.375
755559,0.200,-0.390
755560,0.230,-0.385
755561,0.250,-0.395
755562,0.235,-0.405
755563,0.260,-0.425
755564,0.275,-0.435
755565,0.260,-0.470
755566,0.265,-0.465
755567,0.265,-0.485
755568,0.310,-0.480
755569,0.335,-0.505
755570,0.360,-0.505
755571,0.385,-0.510
755572,0.350,-0.535
755573,0.375,-0.535
755574,0.370,-0.515
755575,0.355,-0.515
755576,0.350,-0.495
755577,0.355,-0.500
755578,0.350,-0.455
755579,0.350,-0.415
755580,0.320,-0.395
755581,0.295,-0.355
755582,0.290,-0.310
755583,0.235,-0.260
755584,0.215,-0.260
755585,0.220,-0.250
755586,0.180,-0.210
755587,0.140,-0.205
755588,0.140,-0.200
755589,0.130,-0.200
755590,0.110,-0.205
755591,0.060,-0.215
755592,0.045,-0.235
755593,0.040,-0.260
755594,0.005,-0.235
755595,0.015,-0.235
755596,0.010,-0.245
755597,0.020,-0.265
755598,0.030,-0.255
755599,0.040,-0.255
755600,0.040,-0.255
755601,0.030,-0.260
755602,0.005,-0.270
755603,0.000,-0.260
755604,-0.005,-0.275
755605,0.000,-0.285
755606,-0.005,-0.275
755607,0.010,-0.280
755608,0.015,-0.290
755609,0.000,-0.315
755610,-0.015,-0.295
755611,-0.025,-0.295
755612,-0.005,-0.285
755613,0.000,-0.315
755614,-0.005,-0.295
755615,-0.005,-0.290
755616,0.020,-0.310
755617,0.040,-0.300
755618,0.015,-0.320
755619,0.005,-0.285
755620,0.015,-0.305
755621,0.000,-0.310
755622,-0.010,-0.305
755623,-0.020,-0.295
755624,0.025,-0.305
755625,0.010,-0.325
755626,0.035,-0.310
755627,0.005,-0.295
755628,0.025,-0.300
755629,0.000,-0.305
755630,-0.020,-0.300
755631,-0.020,-0.275
755632,-0.020,-0.290
755633,-0.020,-0.315
755634,-0.015,-0.290
755635,0.000,-0.280
755636,0.005,-0.280
755637,-0.015,-0.295
755638,-0.010,-0.285
755639,0.000,-0.280
755640,0.005,-0.265
755641,-0.025,-0.285
755642,-0.010,-0.275
755643,0.000,-0.260
755644,0.000,-0.280
755645,0.015,-0.275
755646,0.010,-0.270
755647,0.020,-0.260
755648,0.005,-0.260
755649,0.000,-0.265
755650,-0.020,-0.250
755651,-0.015,-0.230
755652,-0.010,-0.265
755653,0.000,-0.270
755654,0.000,-0.240
755655,-0.035,-0.240
755656,-0.035,-0.260
755657,-0.020,-0.250
755658,-0.020,-0.245
755659,-0.020,-0.220
755660,-0.030,-0.240
755661,-0.035,-0.260
755662,-0.025,-0.225
755663,0.000,-0.240
755664,0.000,-0.250
755665,0.005,-0.255
755666,-0.010,-0.245
755667,-0.020,-0.230
755668,-0.030,-0.200
755669,-0.010,-0.180
755670,-0.020,-0.140
755671,0.015,-0.150
755672,0.020,-0.110
755673,0.065,-0.110
755674,0.050,-0.080
755675,0.060,-0.060
755676,0.045,-0.065
755677,0.050,-0.080
755678,0.020,-0.120
755679,0.040,-0.140
755680,0.050,-0.135
755681,0.025,-0.150
755682,0.025,-0.200
755683,0.020,-0.205
755684,0.020,-0.225
755685,-0.020,-0.230
755686,-0.020,-0.250
755687,-0.040,-0.260
755688,-0.035,-0.275
755689,-0.030,-0.295
755690,0.000,-0.280
755691,-0.015,-0.280
755692,-0.010,-0.315
755693,0.000,-0.305
755694,-0.035,-0.300
755695,-0.020,-0.290
755696,0.005,-0.305
755697,-0.035,-0.310
755698,-0.030,-0.320
755699,-0.015,-0.305
755700,-0.005,-0.300
755701,0.015,-0.310
755702,0.000,-0.295
755703,0.000,-0.290
755704,-0.030,-0.280
755705,-0.015,-0.285
755706,-0.015,-0.300
755707,-0.025,-0.280
755708,-0.005,-0.280
755709,-0.015,-0.255
755710,-0.005,-0.225
755711,0.000,-0.090
755712,-0.010,0.080
755713,-0.025,0.310
755714,0.025,0.630
755715,0.025,0.930
755716,-0.070,1.110
755717,-0.250,1.330
755718,-0.470,1.590
755719,-0.720,1.795
755720,-0.940,1.860
755721,-1.075,1.810
755722,-1.050,1.720
755723,-0.970,1.595
755724,-0.945,1.400
755725,-0.910,1.265
755726,-0.875,1.130
755727,-0.800,1.030
755728,-0.710,1.060
755729,-0.695,1.255
755730,-0.645,1.540
755731,-0.655,1.690
755732,-0.610,1.485
755733,-0.550,0.900
755734,-0.500,0.265
755735,-0.440,-0.175
755736,-0.355,-0.400
755737,-0.310,-0.495
755738,-0.240,-0.510
755739,-0.180,-0.530
755740,-0.110,-0.505
755741,-0.050,-0.465
755742,0.015,-0.430
755743,0.045,-0.445
755744,0.075,-0.445
755745,0.100,-0.405
755746,0.140,-0.425
755747,0.140,-0.410
755748,0.155,-0.405
755749,0.145,-0.420
755750,0.135,-0.405
755751,0.145,-0.400
755752,0.125,-0.405
755753,0.110,-0.385
755754,0.160,-0.365
755755,0.160,-0.365
755756,0.170,-0.360
755757,0.170,-0.350
755758,0.150,-0.340
755759,0.200,-0.355
755760,0.175,-0.370
755761,0.165,-0.350
755762,0.180,-0.355
755763,0.175,-0.360
755764,0.205,-0.360
755765,0.210,-0.355
755766,0.220,-0.360
755767,0.235,-0.390
755768,0.225,-0.415
755769,0.220,-0.415
755770,0.245,-0.435
755771,0.240,-0.455
755772,0.240,-0.470
755773,0.260,-0.515
755774,0.275,-0.520
755775,0.310,-0.550
755776,0.335,-0.565
755777,0.300,-0.570
755778,0.320,-0.560
755779,0.335,-0.585
755780,0.325,-0.610
755781,0.335,-0.580
755782,0.320,-0.545
755783,0.340,-0.545
755784,0.325,-0.525
755785,0.320,-0.490
755786,0.300,-0.440
755787,0.290,-0.395
755788,0.260,-0.370
755789,0.215,-0.315
755790,0.215,-0.290
755791,0.180,-0.280
755792,0.200,-0.255
755793,0.185,-0.240
755794,0.155,-0.230
755795,0.135,-0.230
755796,0.105,-0.240
755797,0.090,-0.210
755798,0.075,-0.220
755799,0.050,-0.240
755800,0.050,-0.250
755801,0.050,-0.255
755802,0.050,-0.250
755803,0.040,-0.245
755804,0.040,-0.280
755805,0.015,-0.270
755806,-0.010,-0.270
755807,0.000,-0.275
755808,-0.005,-0.270
755809,-0.010,-0.285
755810,-0.015,-0.295
755811,-0.035,-0.275
755812,-0.005,-0.305
755813,0.010,-0.320
755814,-0.030,-0.310
755815,0.000,-0.310
755816,0.000,-0.330
755817,-0.005,-0.320
755818,-0.015,-0.310
755819,-0.015,-0.310
755820,-0.005,-0.355
755821,-0.005,-0.370
755822,0.000,-0.360
755823,0.000,-0.360
755824,0.015,-0.370
755825,0.010,-0.340
755826,-0.010,-0.325
755827,-0.015,-0.340
755828,-0.010,-0.340
755829,-0.020,-0.370
755830,-0.015,-0.365
755831,0.000,-0.380
755832,-0.025,-0.360
755833,-0.005,-0.375
755834,-0.015,-0.345
755835,-0.030,-0.350
755836,0.005,-0.355
755837,-0.015,-0.375
755838,-0.005,-0.370
755839,-0.025,-0.365
755840,0.000,-0.370
755841,0.005,-0.385
755842,0.000,-0.365
755843,-0.010,-0.360
755844,-0.010,-0.360
755845,-0.050,-0.365
755846,-0.045,-0.355
755847,-0.055,-0.355
755848,-0.065,-0.350
755849,-0.065,-0.365
755850,-0.035,-0.350
755851,-0.050,-0.335
755852,-0.065,-0.335
755853,-0.085,-0.330
755854,-0.110,-0.340
755855,-0.130,-0.345
755856,-0.130,-0.330
755857,-0.130,-0.335
755858,-0.140,-0.365
755859,-0.120,-0.345
755860,-0.120,-0.320
755861,-0.125,-0.335
755862,-0.105,-0.340
755863,-0.110,-0.355
755864,-0.115,-0.320
755865,-0.150,-0.340
755866,-0.160,-0.320
755867,-0.170,-0.320
755868,-0.160,-0.330
755869,-0.155,-0.310
755870,-0.145,-0.335
755871,-0.155,-0.320
755872,-0.140,-0.310
755873,-0.125,-0.320
755874,-0.145,-0.320
755875,-0.175,-0.310
755876,-0.175,-0.305
755877,-0.160,-0.315
755878,-0.135,-0.305
755879,-0.130,-0.320
755880,-0.115,-0.305
755881,-0.110,-0.265
755882,-0.120,-0.225
755883,-0.135,-0.210
755884,-0.145,-0.190
755885,-0.130,-0.165
755886,-0.120,-0.140
755887,-0.105,-0.105
755888,-0.090,-0.100
755889,-0.075,-0.115
755890,-0.075,-0.110
755891,-0.065,-0.130
755892,-0.100,-0.180
755893,-0.095,-0.190
755894,-0.125,-0.155
755895,-0.130,-0.200
755896,-0.160,-0.225
755897,-0.160,-0.245
755898,-0.145,-0.240
755899,-0.170,-0.255
755900,-0.185,-0.295
755901,-0.205,-0.320
755902,-0.195,-0.345
755903,-0.220,-0.350
755904,-0.200,-0.330
755905,-0.215,-0.360
755906,-0.195,-0.350
755907,-0.195,-0.355
755908,-0.190,-0.350
755909,-0.200,-0.360
755910,-0.160,-0.355
755911,-0.190,-0.345
755912,-0.195,-0.350
755913,-0.180,-0.350
755914,-0.200,-0.350
755915,-0.205,-0.320
755916,-0.225,-0.360
755917,-0.190,-0.355
755918,-0.170,-0.330
755919,-0.150,-0.320
755920,-0.180,-0.310
755921,-0.200,-0.335
755922,-0.195,-0.340
755923,-0.195,-0.305
