'sample interval','ECG1','ECG2'
'0.004 sec','mV','mV'
1287500,-0.025,-0.360
1287501,-0.035,-0.340
1287502,-0.020,-0.370
1287503,-0.010,-0.375
1287504,-0.015,-0.370
1287505,0.005,-0.360
1287506,-0.030,-0.375
1287507,-0.020,-0.370
1287508,-0.020,-0.350
1287509,-0.020,-0.305
1287510,-0.005,-0.300
1287511,-0.020,-0.235
1287512,-0.010,-0.110
1287513,0.025,0.060
1287514,0.065,0.315
1287515,0.120,0.655
1287516,0.060,0.915
1287517,-0.185,1.030
1287518,-0.560,1.050
1287519,-1.180,1.115
1287520,-1.830,1.230
1287521,-2.345,1.270
1287522,-2.715,1.230
1287523,-2.820,1.145
1287524,-2.760,1.070
1287525,-2.580,0.965
1287526,-2.395,0.850
1287527,-2.240,0.750
1287528,-2.115,0.625
1287529,-1.920,0.485
1287530,-1.745,0.380
1287531,-1.620,0.360
1287532,-1.510,0.340
1287533,-1.365,0.315
1287534,-1.250,0.205
1287535,-1.100,-0.050
1287536,-1.030,-0.410
1287537,-0.915,-0.625
1287538,-0.785,-0.695
1287539,-0.650,-0.735
1287540,-0.555,-0.730
1287541,-0.440,-0.640
1287542,-0.290,-0.565
1287543,-0.145,-0.510
1287544,0.000,-0.430
1287545,0.155,-0.405
1287546,0.305,-0.395
1287547,0.390,-0.395
1287548,0.470,-0.390
1287549,0.490,-0.360
1287550,0.525,-0.355
1287551,0.555,-0.365
1287552,0.540,-0.350
1287553,0.540,-0.340
1287554,0.570,-0.330
1287555,0.575,-0.330
1287556,0.560,-0.295
1287557,0.595,-0.295
1287558,0.630,-0.305
1287559,0.640,-0.310
1287560,0.670,-0.285
1287561,0.660,-0.260
1287562,0.675,-0.240
1287563,0.665,-0.260
1287564,0.700,-0.260
1287565,0.710,-0.225
1287566,0.730,-0.265
1287567,0.760,-0.305
1287568,0.770,-0.355
1287569,0.780,-0.345
1287570,0.800,-0.315
1287571,0.825,-0.295
1287572,0.870,-0.305
1287573,0.895,-0.300
1287574,0.890,-0.290
1287575,0.945,-0.290
1287576,0.930,-0.280
1287577,0.980,-0.265
1287578,0.975,-0.265
1287579,1.020,-0.280
1287580,0.995,-0.260
1287581,1.005,-0.250
1287582,1.015,-0.240
1287583,1.025,-0.225
1287584,1.005,-0.195
1287585,0.980,-0.165
1287586,0.980,-0.120
1287587,0.960,-0.095
1287588,0.905,-0.070
1287589,0.880,-0.055
1287590,0.830,-0.060
1287591,0.800,-0.025
1287592,0.780,-0.025
1287593,0.720,-0.035
1287594,0.665,0.000
1287595,0.595,0.060
1287596,0.540,0.020
1287597,0.505,-0.095
1287598,0.480,-0.210
1287599,0.425,-0.200
1287600,0.375,-0.200
1287601,0.325,-0.175
1287602,0.315,-0.195
1287603,0.310,-0.155
1287604,0.265,-0.140
1287605,0.245,-0.160
1287606,0.240,-0.210
1287607,0.205,-0.200
1287608,0.230,-0.215
1287609,0.200,-0.180
1287610,0.185,-0.170
1287611,0.175,-0.185
1287612,0.165,-0.195
1287613,0.155,-0.145
1287614,0.170,-0.140
1287615,0.165,-0.150
1287616,0.165,-0.215
1287617,0.155,-0.265
1287618,0.155,-0.255
1287619,0.165,-0.195
1287620,0.170,-0.200
1287621,0.175,-0.195
1287622,0.175,-0.190
1287623,0.195,-0.165
1287624,0.185,-0.155
1287625,0.180,-0.190
1287626,0.190,-0.210
1287627,0.200,-0.185
1287628,0.195,-0.150
1287629,0.190,-0.205
1287630,0.195,-0.255
1287631,0.215,-0.300
1287632,0.195,-0.370
1287633,0.210,-0.355
1287634,0.230,-0.320
1287635,0.220,-0.335
1287636,0.240,-0.350
1287637,0.230,-0.380
1287638,0.245,-0.345
1287639,0.240,-0.320
1287640,0.240,-0.290
1287641,0.230,-0.270
1287642,0.245,-0.285
1287643,0.210,-0.260
1287644,0.195,-0.310
1287645,0.195,-0.320
1287646,0.200,-0.340
1287647,0.200,-0.320
1287648,0.230,-0.315
1287649,0.220,-0.305
1287650,0.190,-0.300
1287651,0.185,-0.300
1287652,0.180,-0.300
1287653,0.200,-0.270
1287654,0.185,-0.285
1287655,0.200,-0.285
1287656,0.170,-0.255
1287657,0.170,-0.265
1287658,0.160,-0.260
1287659,0.160,-0.250
1287660,0.155,-0.265
1287661,0.175,-0.225
1287662,0.170,-0.210
1287663,0.160,-0.175
1287664,0.155,-0.140
1287665,0.185,-0.110
1287666,0.220,-0.085
1287667,0.255,-0.065
1287668,0.300,-0.055
1287669,0.315,-0.020
1287670,0.355,-0.010
1287671,0.395,-0.020
1287672,0.380,-0.040
1287673,0.365,-0.060
1287674,0.330,-0.055
1287675,0.250,-0.045
1287676,0.225,-0.050
1287677,0.190,-0.100
1287678,0.190,-0.130
1287679,0.190,-0.170
1287680,0.135,-0.160
1287681,0.080,-0.170
1287682,0.105,-0.175
1287683,0.080,-0.235
1287684,0.100,-0.305
1287685,0.100,-0.335
1287686,0.110,-0.350
1287687,0.110,-0.310
1287688,0.100,-0.310
1287689,0.095,-0.320
1287690,0.120,-0.315
1287691,0.085,-0.280
1287692,0.095,-0.300
1287693,0.080,-0.320
1287694,0.090,-0.345
1287695,0.080,-0.315
1287696,0.100,-0.310
1287697,0.110,-0.295
1287698,0.095,-0.310
1287699,0.090,-0.320
1287700,0.090,-0.290
1287701,0.095,-0.280
1287702,0.105,-0.300
1287703,0.105,-0.295
1287704,0.095,-0.285
1287705,0.080,-0.255
1287706,0.080,-0.240
1287707,0.110,-0.180
1287708,0.100,-0.055
1287709,0.120,0.125
1287710,0.185,0.370
1287711,0.250,0.645
1287712,0.110,0.765
1287713,-0.150,0.830
1287714,-0.640,0.890
1287715,-1.360,1.025
1287716,-2.040,1.150
1287717,-2.560,1.205
1287718,-2.815,1.200
1287719,-2.805,1.110
1287720,-2.680,1.050
1287721,-2.515,0.995
1287722,-2.345,0.950
1287723,-2.200,0.880
1287724,-2.040,0.690
1287725,-1.840,0.535
1287726,-1.690,0.455
1287727,-1.560,0.420
1287728,-1.435,0.435
1287729,-1.290,0.375
1287730,-1.180,0.170
1287731,-1.020,-0.220
1287732,-0.915,-0.520
1287733,-0.770,-0.630
1287734,-0.665,-0.650
1287735,-0.505,-0.640
1287736,-0.360,-0.570
1287737,-0.200,-0.505
1287738,-0.040,-0.465
1287739,0.115,-0.465
1287740,0.255,-0.445
1287741,0.385,-0.445
1287742,0.475,-0.390
1287743,0.545,-0.360
1287744,0.565,-0.340
1287745,0.585,-0.340
1287746,0.610,-0.340
1287747,0.640,-0.300
1287748,0.660,-0.295
1287749,0.655,-0.305
1287750,0.675,-0.305
1287751,0.695,-0.290
1287752,0.695,-0.305
1287753,0.720,-0.285
1287754,0.765,-0.260
1287755,0.725,-0.235
1287756,0.745,-0.235
1287757,0.770,-0.250
1287758,0.770,-0.250
1287759,0.795,-0.250
1287760,0.840,-0.250
1287761,0.850,-0.215
1287762,0.880,-0.205
1287763,0.900,-0.225
1287764,0.930,-0.225
1287765,0.945,-0.230
1287766,0.975,-0.230
1287767,1.000,-0.215
1287768,1.025,-0.210
1287769,1.040,-0.220
1287770,1.060,-0.215
1287771,1.050,-0.190
1287772,1.090,-0.175
1287773,1.120,-0.170
1287774,1.135,-0.200
1287775,1.120,-0.160
1287776,1.140,-0.130
1287777,1.115,-0.120
1287778,1.090,-0.125
1287779,1.090,-0.120
1287780,1.055,-0.085
1287781,1.050,-0.055
1287782,0.995,-0.030
1287783,0.950,-0.040
1287784,0.895,-0.050
1287785,0.840,-0.050
1287786,0.800,-0.025
1287787,0.735,-0.035
1287788,0.675,-0.050
1287789,0.640,-0.055
1287790,0.575,-0.040
1287791,0.525,-0.025
1287792,0.490,-0.030
1287793,0.455,-0.070
1287794,0.390,-0.135
1287795,0.330,-0.165
1287796,0.330,-0.145
1287797,0.300,-0.130
1287798,0.295,-0.130
1287799,0.300,-0.150
1287800,0.265,-0.160
1287801,0.265,-0.175
1287802,0.255,-0.165
1287803,0.240,-0.175
1287804,0.250,-0.175
1287805,0.240,-0.200
1287806,0.250,-0.230
1287807,0.240,-0.245
1287808,0.225,-0.235
1287809,0.240,-0.240
1287810,0.230,-0.205
1287811,0.235,-0.185
1287812,0.245,-0.220
1287813,0.235,-0.220
1287814,0.240,-0.225
1287815,0.230,-0.240
1287816,0.230,-0.250
1287817,0.240,-0.240
1287818,0.260,-0.250
1287819,0.265,-0.270
1287820,0.230,-0.280
1287821,0.260,-0.285
1287822,0.255,-0.260
1287823,0.260,-0.260
1287824,0.265,-0.260
1287825,0.240,-0.275
1287826,0.255,-0.285
1287827,0.265,-0.275
1287828,0.270,-0.270
1287829,0.255,-0.260
1287830,0.270,-0.260
1287831,0.250,-0.290
1287832,0.260,-0.320
1287833,0.250,-0.305
1287834,0.275,-0.300
1287835,0.260,-0.290
1287836,0.245,-0.295
1287837,0.245,-0.290
1287838,0.265,-0.275
1287839,0.240,-0.280
1287840,0.230,-0.270
1287841,0.250,-0.240
1287842,0.220,-0.270
1287843,0.220,-0.275
1287844,0.230,-0.275
1287845,0.235,-0.280
1287846,0.195,-0.275
1287847,0.195,-0.270
1287848,0.205,-0.255
1287849,0.215,-0.245
1287850,0.195,-0.215
1287851,0.220,-0.235
1287852,0.205,-0.270
1287853,0.200,-0.235
1287854,0.190,-0.185
1287855,0.180,-0.120
1287856,0.200,-0.130
1287857,0.235,-0.100
1287858,0.270,-0.090
1287859,0.265,-0.070
1287860,0.305,-0.035
1287861,0.350,-0.035
1287862,0.400,-0.050
1287863,0.410,-0.040
1287864,0.385,-0.080
1287865,0.370,-0.105
1287866,0.310,-0.110
1287867,0.240,-0.120
1287868,0.195,-0.160
1287869,0.190,-0.175
1287870,0.175,-0.190
1287871,0.135,-0.200
1287872,0.105,-0.220
1287873,0.090,-0.275
1287874,0.095,-0.300
1287875,0.120,-0.305
1287876,0.105,-0.305
1287877,0.125,-0.330
1287878,0.140,-0.320
1287879,0.125,-0.290
1287880,0.110,-0.325
1287881,0.130,-0.325
1287882,0.120,-0.320
1287883,0.140,-0.320
1287884,0.115,-0.310
1287885,0.110,-0.295
1287886,0.105,-0.300
1287887,0.120,-0.290
1287888,0.125,-0.280
1287889,0.170,-0.315
1287890,0.135,-0.315
1287891,0.140,-0.300
1287892,0.115,-0.295
1287893,0.115,-0.280
1287894,0.135,-0.285
1287895,0.120,-0.245
1287896,0.110,-0.205
1287897,0.120,-0.125
1287898,0.120,-0.020
1287899,0.155,0.175
1287900,0.235,0.435
1287901,0.240,0.675
1287902,0.035,0.745
1287903,-0.320,0.820
1287904,-0.945,0.905
1287905,-1.725,1.070
1287906,-2.330,1.140
1287907,-2.720,1.085
1287908,-2.845,1.020
1287909,-2.730,0.985
1287910,-2.575,0.920
1287911,-2.385,0.865
1287912,-2.260,0.790
1287913,-2.095,0.640
1287914,-1.875,0.470
1287915,-1.715,0.400
1287916,-1.590,0.365
1287917,-1.435,0.360
1287918,-1.285,0.265
1287919,-1.195,0.010
1287920,-1.040,-0.305
1287921,-0.925,-0.555
1287922,-0.765,-0.640
1287923,-0.630,-0.685
1287924,-0.495,-0.595
1287925,-0.350,-0.515
1287926,-0.205,-0.495
1287927,-0.025,-0.470
1287928,0.170,-0.430
1287929,0.315,-0.395
1287930,0.410,-0.375
1287931,0.450,-0.395
1287932,0.485,-0.395
1287933,0.520,-0.355
1287934,0.555,-0.370
1287935,0.595,-0.375
1287936,0.595,-0.380
1287937,0.615,-0.360
1287938,0.650,-0.325
1287939,0.620,-0.365
1287940,0.630,-0.360
1287941,0.665,-0.340
1287942,0.670,-0.300
1287943,0.675,-0.295
1287944,0.680,-0.305
1287945,0.695,-0.300
1287946,0.705,-0.290
1287947,0.735,-0.280
1287948,0.765,-0.275
1287949,0.770,-0.270
1287950,0.790,-0.250
1287951,0.810,-0.275
1287952,0.810,-0.230
1287953,0.855,-0.225
1287954,0.890,-0.210
1287955,0.920,-0.205
1287956,0.950,-0.190
1287957,0.965,-0.165
1287958,1.000,-0.160
1287959,0.995,-0.195
1287960,1.030,-0.210
1287961,1.050,-0.195
1287962,1.045,-0.185
1287963,1.030,-0.195
1287964,1.030,-0.190
1287965,1.040,-0.145
1287966,1.010,-0.105
1287967,0.985,-0.105
1287968,0.980,-0.120
1287969,0.930,-0.100
1287970,0.865,-0.075
1287971,0.805,-0.075
1287972,0.760,-0.090
1287973,0.695,-0.080
1287974,0.635,-0.055
1287975,0.575,-0.080
1287976,0.535,-0.130
1287977,0.505,-0.130
1287978,0.420,-0.145
1287979,0.370,-0.165
1287980,0.350,-0.185
1287981,0.290,-0.210
1287982,0.255,-0.230
1287983,0.205,-0.255
1287984,0.190,-0.275
1287985,0.170,-0.280
1287986,0.170,-0.300
1287987,0.145,-0.310
1287988,0.130,-0.300
1287989,0.125,-0.300
1287990,0.135,-0.320
1287991,0.140,-0.330
1287992,0.115,-0.350
1287993,0.125,-0.335
1287994,0.130,-0.340
1287995,0.125,-0.330
1287996,0.145,-0.370
1287997,0.145,-0.355
1287998,0.160,-0.370
1287999,0.115,-0.360
1288000,0.120,-0.365
1288001,0.140,-0.355
1288002,0.125,-0.365
1288003,0.130,-0.360
1288004,0.125,-0.370
1288005,0.115,-0.360
1288006,0.135,-0.345
1288007,0.110,-0.375
1288008,0.125,-0.425
1288009,0.155,-0.405
1288010,0.140,-0.405
1288011,0.135,-0.425
1288012,0.145,-0.440
1288013,0.150,-0.425
1288014,0.115,-0.435
1288015,0.140,-0.430
1288016,0.130,-0.470
1288017,0.150,-0.465
1288018,0.130,-0.465
1288019,0.155,-0.460
1288020,0.155,-0.445
1288021,0.150,-0.450
1288022,0.130,-0.450
1288023,0.125,-0.435
1288024,0.125,-0.415
1288025,0.120,-0.420
1288026,0.120,-0.410
1288027,0.115,-0.420
1288028,0.120,-0.425
1288029,0.120,-0.450
1288030,0.115,-0.420
1288031,0.115,-0.415
1288032,0.125,-0.415
1288033,0.110,-0.410
1288034,0.115,-0.420
1288035,0.100,-0.420
1288036,0.095,-0.405
1288037,0.110,-0.375
1288038,0.090,-0.380
1288039,0.070,-0.410
1288040,0.105,-0.400
1288041,0.115,-0.405
1288042,0.075,-0.405
1288043,0.090,-0.395
1288044,0.125,-0.375
1288045,0.105,-0.345
1288046,0.095,-0.315
1288047,0.115,-0.280
1288048,0.135,-0.230
1288049,0.155,-0.210
1288050,0.195,-0.175
1288051,0.235,-0.145
1288052,0.280,-0.180
1288053,0.280,-0.210
1288054,0.285,-0.220
1288055,0.275,-0.215
1288056,0.245,-0.215
1288057,0.175,-0.235
1288058,0.145,-0.255
1288059,0.110,-0.275
1288060,0.090,-0.300
1288061,0.045,-0.305
1288062,0.025,-0.330
1288063,0.020,-0.380
1288064,0.000,-0.410
1288065,0.000,-0.405
1288066,0.010,-0.420
1288067,0.000,-0.420
1288068,0.015,-0.440
1288069,0.000,-0.455
1288070,-0.005,-0.450
1288071,0.000,-0.445
1288072,0.000,-0.445
1288073,-0.010,-0.430
1288074,-0.010,-0.440
1288075,0.005,-0.430
1288076,-0.015,-0.415
1288077,-0.020,-0.425
1288078,-0.020,-0.425
1288079,-0.020,-0.400
1288080,-0.005,-0.415
1288081,0.020,-0.420
1288082,0.000,-0.410
1288083,-0.005,-0.395
1288084,-0.010,-0.375
1288085,-0.020,-0.365
1288086,-0.040,-0.345
1288087,-0.020,-0.220
1288088,0.015,-0.035
1288089,0.060,0.175
1288090,0.125,0.495
1288091,0.065,0.790
1288092,-0.150,0.915
1288093,-0.535,0.945
1288094,-1.185,1.000
1288095,-1.880,1.160
1288096,-2.440,1.235
1288097,-2.820,1.145
1288098,-2.920,1.030
1288099,-2.810,0.955
1288100,-2.630,0.905
1288101,-2.425,0.780
1288102,-2.285,0.650
1288103,-2.105,0.475
1288104,-1.930,0.365
1288105,-1.760,0.280
1288106,-1.640,0.220
1288107,-1.490,0.130
1288108,-1.375,0.080
1288109,-1.240,-0.140
1288110,-1.135,-0.475
1288111,-0.990,-0.755
1288112,-0.865,-0.830
1288113,-0.735,-0.835
1288114,-0.630,-0.780
1288115,-0.515,-0.670
1288116,-0.350,-0.590
1288117,-0.160,-0.525
1288118,-0.010,-0.515
1288119,0.135,-0.490
1288120,0.240,-0.505
1288121,0.330,-0.505
1288122,0.375,-0.470
1288123,0.425,-0.460
1288124,0.435,-0.430
1288125,0.440,-0.420
1288126,0.470,-0.420
1288127,0.460,-0.430
1288128,0.470,-0.405
1288129,0.490,-0.380
1288130,0.500,-0.375
1288131,0.520,-0.395
1288132,0.535,-0.355
1288133,0.540,-0.350
1288134,0.545,-0.345
1288135,0.570,-0.320
1288136,0.570,-0.320
1288137,0.620,-0.295
1288138,0.610,-0.315
1288139,0.640,-0.320
1288140,0.660,-0.315
1288141,0.670,-0.330
1288142,0.705,-0.295
1288143,0.735,-0.285
1288144,0.745,-0.290
1288145,0.790,-0.285
1288146,0.800,-0.260
1288147,0.830,-0.275
1288148,0.815,-0.280
1288149,0.870,-0.270
1288150,0.865,-0.255
1288151,0.890,-0.245
1288152,0.910,-0.225
1288153,0.900,-0.205
1288154,0.895,-0.205
1288155,0.900,-0.195
1288156,0.895,-0.150
1288157,0.870,-0.160
1288158,0.845,-0.130
1288159,0.815,-0.085
1288160,0.795,-0.100
1288161,0.740,-0.080
1288162,0.695,-0.080
1288163,0.635,-0.070
1288164,0.590,-0.085
1288165,0.535,-0.120
1288166,0.495,-0.110
1288167,0.420,-0.120
1288168,0.385,-0.150
1288169,0.330,-0.195
1288170,0.260,-0.175
1288171,0.255,-0.195
1288172,0.210,-0.225
1288173,0.190,-0.235
1288174,0.170,-0.240
1288175,0.120,-0.260
1288176,0.090,-0.295
1288177,0.075,-0.280
1288178,0.055,-0.295
1288179,0.050,-0.280
1288180,0.020,-0.295
1288181,0.040,-0.320
1288182,0.035,-0.330
1288183,0.045,-0.345
1288184,0.045,-0.320
1288185,0.050,-0.340
1288186,0.040,-0.330
1288187,0.025,-0.335
1288188,0.035,-0.360
1288189,0.045,-0.355
1288190,0.050,-0.325
1288191,0.075,-0.345
1288192,0.050,-0.340
1288193,0.045,-0.340
1288194,0.050,-0.365
1288195,0.065,-0.365
1288196,0.060,-0.380
1288197,0.075,-0.385
1288198,0.060,-0.405
1288199,0.055,-0.375
1288200,0.055,-0.395
1288201,0.080,-0.415
1288202,0.085,-0.405
1288203,0.065,-0.410
1288204,0.065,-0.410
1288205,0.095,-0.430
1288206,0.065,-0.420
1288207,0.045,-0.425
1288208,0.050,-0.415
1288209,0.070,-0.430
1288210,0.065,-0.435
1288211,0.065,-0.425
1288212,0.070,-0.430
1288213,0.070,-0.405
1288214,0.040,-0.430
1288215,0.070,-0.425
1288216,0.065,-0.440
1288217,0.055,-0.425
1288218,0.040,-0.440
1288219,0.060,-0.435
1288220,0.030,-0.410
1288221,0.045,-0.420
1288222,0.035,-0.415
1288223,0.055,-0.410
1288224,0.045,-0.385
1288225,0.035,-0.385
1288226,0.030,-0.410
1288227,0.035,-0.400
1288228,0.045,-0.390
1288229,0.035,-0.370
1288230,0.025,-0.380
1288231,0.040,-0.380
1288232,0.035,-0.360
1288233,0.025,-0.355
1288234,0.035,-0.330
1288235,0.025,-0.290
1288236,0.010,-0.250
1288237,0.035,-0.230
1288238,0.075,-0.195
1288239,0.100,-0.170
1288240,0.125,-0.160
1288241,0.170,-0.145
1288242,0.210,-0.145
1288243,0.230,-0.140
1288244,0.260,-0.120
1288245,0.255,-0.125
1288246,0.225,-0.150
1288247,0.165,-0.155
1288248,0.100,-0.160
1288249,0.095,-0.195
1288250,0.055,-0.245
1288251,0.045,-0.250
1288252,0.025,-0.250
1288253,0.005,-0.260
1288254,-0.020,-0.290
1288255,-0.030,-0.350
1288256,-0.020,-0.385
1288257,-0.010,-0.365
1288258,-0.030,-0.385
1288259,0.005,-0.395
1288260,-0.020,-0.390
1288261,-0.020,-0.375
1288262,-0.025,-0.380
1288263,-0.020,-0.360
1288264,-0.015,-0.365
1288265,-0.025,-0.380
1288266,-0.020,-0.375
1288267,-0.025,-0.370
1288268,-0.020,-0.380
1288269,-0.010,-0.345
1288270,-0.025,-0.340
1288271,-0.030,-0.330
1288272,-0.010,-0.340
1288273,-0.010,-0.330
1288274,0.000,-0.350
1288275,0.000,-0.360
1288276,0.010,-0.335
1288277,0.030,-0.285
1288278,0.010,-0.250
1288279,0.030,-0.145
1288280,0.040,0.000
1288281,0.085,0.220
1288282,0.150,0.550
1288283,0.085,0.815
1288284,-0.125,0.900
1288285,-0.505,0.975
1288286,-1.145,1.080
1288287,-1.835,1.220
1288288,-2.370,1.260
1288289,-2.730,1.245
1288290,-2.835,1.190
1288291,-2.720,1.110
1288292,-2.510,1.020
1288293,-2.320,0.925
1288294,-2.170,0.845
1288295,-2.035,0.690
1288296,-1.790,0.580
1288297,-1.650,0.485
1288298,-1.505,0.455
1288299,-1.380,0.445
1288300,-1.240,0.345
1288301,-1.125,0.085
1288302,-1.010,-0.290
1288303,-0.910,-0.585
1288304,-0.780,-0.700
1288305,-0.630,-0.720
1288306,-0.505,-0.640
1288307,-0.375,-0.565
1288308,-0.195,-0.500
1288309,-0.020,-0.450
1288310,0.105,-0.420
1288311,0.265,-0.375
1288312,0.385,-0.360
1288313,0.475,-0.375
1288314,0.520,-0.370
1288315,0.545,-0.360
1288316,0.560,-0.340
1288317,0.570,-0.325
1288318,0.605,-0.340
1288319,0.605,-0.315
1288320,0.625,-0.305
1288321,0.655,-0.290
1288322,0.690,-0.300
1288323,0.675,-0.295
1288324,0.700,-0.290
1288325,0.715,-0.300
1288326,0.745,-0.280
1288327,0.740,-0.275
1288328,0.770,-0.290
1288329,0.775,-0.315
1288330,0.760,-0.280
1288331,0.785,-0.280
1288332,0.820,-0.285
1288333,0.835,-0.275
1288334,0.835,-0.270
1288335,0.890,-0.265
1288336,0.920,-0.245
1288337,0.940,-0.230
1288338,0.965,-0.245
1288339,0.990,-0.250
1288340,1.040,-0.225
1288341,1.020,-0.230
1288342,1.040,-0.245
1288343,1.080,-0.245
1288344,1.090,-0.245
1288345,1.085,-0.235
1288346,1.105,-0.230
1288347,1.100,-0.230
1288348,1.090,-0.200
1288349,1.060,-0.150
1288350,1.040,-0.150
1288351,1.045,-0.130
1288352,1.005,-0.135
1288353,0.955,-0.100
1288354,0.915,-0.075
1288355,0.875,-0.075
1288356,0.830,-0.075
1288357,0.770,-0.075
1288358,0.740,-0.035
1288359,0.670,-0.030
1288360,0.635,-0.040
1288361,0.580,-0.060
1288362,0.530,-0.050
1288363,0.475,-0.060
1288364,0.470,-0.080
1288365,0.420,-0.120
1288366,0.380,-0.115
1288367,0.345,-0.105
1288368,0.335,-0.125
1288369,0.285,-0.155
1288370,0.270,-0.145
1288371,0.285,-0.120
1288372,0.250,-0.130
1288373,0.250,-0.130
1288374,0.240,-0.175
1288375,0.230,-0.170
1288376,0.240,-0.155
1288377,0.200,-0.185
1288378,0.215,-0.195
1288379,0.215,-0.195
1288380,0.215,-0.180
1288381,0.215,-0.190
1288382,0.195,-0.210
1288383,0.200,-0.190
1288384,0.180,-0.200
1288385,0.205,-0.170
1288386,0.195,-0.205
1288387,0.215,-0.210
1288388,0.225,-0.190
1288389,0.250,-0.175
1288390,0.220,-0.210
1288391,0.215,-0.225
1288392,0.220,-0.225
1288393,0.235,-0.240
1288394,0.215,-0.225
1288395,0.235,-0.225
1288396,0.240,-0.235
1288397,0.250,-0.235
1288398,0.240,-0.260
1288399,0.235,-0.250
1288400,0.260,-0.215
1288401,0.240,-0.205
1288402,0.240,-0.240
1288403,0.255,-0.285
1288404,0.260,-0.280
1288405,0.225,-0.255
1288406,0.230,-0.255
1288407,0.210,-0.255
1288408,0.230,-0.255
1288409,0.230,-0.280
1288410,0.210,-0.260
1288411,0.210,-0.240
1288412,0.210,-0.245
1288413,0.230,-0.235
1288414,0.220,-0.235
1288415,0.230,-0.235
1288416,0.225,-0.240
1288417,0.225,-0.210
1288418,0.225,-0.215
1288419,0.210,-0.215
1288420,0.200,-0.215
1288421,0.195,-0.220
1288422,0.200,-0.195
1288423,0.220,-0.175
1288424,0.180,-0.130
1288425,0.210,-0.065
1288426,0.215,-0.040
1288427,0.260,0.000
1288428,0.300,-0.025
1288429,0.335,-0.025
1288430,0.340,0.005
1288431,0.390,0.005
1288432,0.395,0.020
1288433,0.405,0.025
1288434,0.395,-0.020
1288435,0.375,-0.060
1288436,0.330,-0.050
1288437,0.250,-0.050
1288438,0.235,-0.080
1288439,0.235,-0.095
1288440,0.225,-0.150
1288441,0.180,-0.160
1288442,0.165,-0.135
1288443,0.130,-0.160
1288444,0.140,-0.200
1288445,0.145,-0.250
1288446,0.185,-0.250
1288447,0.150,-0.285
1288448,0.150,-0.265
1288449,0.140,-0.270
1288450,0.135,-0.255
1288451,0.150,-0.260
1288452,0.110,-0.245
1288453,0.145,-0.250
1288454,0.135,-0.235
1288455,0.125,-0.230
1288456,0.160,-0.245
1288457,0.130,-0.250
1288458,0.125,-0.235
1288459,0.120,-0.245
1288460,0.115,-0.210
1288461,0.145,-0.230
1288462,0.140,-0.240
1288463,0.140,-0.240
1288464,0.135,-0.220
1288465,0.120,-0.190
1288466,0.120,-0.185
1288467,0.085,-0.185
1288468,0.130,-0.150
1288469,0.130,-0.080
1288470,0.120,0.040
1288471,0.170,0.240
1288472,0.245,0.520
1288473,0.235,0.755
1288474,0.035,0.860
1288475,-0.320,0.915
1288476,-0.900,1.005
1288477,-1.635,1.150
1288478,-2.210,1.260
1288479,-2.600,1.240
1288480,-2.775,1.185
1288481,-2.735,1.140
1288482,-2.590,1.095
1288483,-2.405,1.015
1288484,-2.230,0.975
1288485,-2.105,0.865
1288486,-1.900,0.720
1288487,-1.720,0.600
1288488,-1.575,0.540
1288489,-1.475,0.495
1288490,-1.330,0.495
1288491,-1.205,0.440
1288492,-1.040,0.260
1288493,-0.950,-0.120
1288494,-0.845,-0.410
1288495,-0.715,-0.570
1288496,-0.570,-0.610
1288497,-0.470,-0.560
1288498,-0.345,-0.510
1288499,-0.145,-0.445
1288500,-0.030,-0.395
1288501,0.105,-0.330
1288502,0.265,-0.310
1288503,0.390,-0.310
1288504,0.475,-0.310
1288505,0.520,-0.295
1288506,0.585,-0.280
1288507,0.595,-0.305
1288508,0.595,-0.300
1288509,0.625,-0.260
1288510,0.635,-0.255
1288511,0.680,-0.240
1288512,0.695,-0.235
1288513,0.680,-0.210
1288514,0.700,-0.210
1288515,0.725,-0.230
1288516,0.745,-0.240
1288517,0.770,-0.225
1288518,0.765,-0.205
1288519,0.780,-0.215
1288520,0.810,-0.220
1288521,0.815,-0.200
1288522,0.825,-0.165
1288523,0.845,-0.155
1288524,0.850,-0.175
1288525,0.895,-0.165
1288526,0.920,-0.145
1288527,0.950,-0.140
1288528,0.965,-0.140
1288529,0.965,-0.115
1288530,1.015,-0.115
1288531,1.025,-0.115
1288532,1.020,-0.140
1288533,1.050,-0.150
1288534,1.055,-0.130
1288535,1.105,-0.105
1288536,1.145,-0.090
1288537,1.140,-0.090
1288538,1.130,-0.070
1288539,1.150,-0.075
1288540,1.130,-0.070
1288541,1.120,-0.075
1288542,1.100,-0.050
1288543,1.090,-0.030
1288544,1.050,-0.025
1288545,0.990,-0.030
1288546,0.930,-0.010
1288547,0.915,0.000
1288548,0.870,0.035
1288549,0.830,0.035
1288550,0.760,0.050
1288551,0.740,0.035
1288552,0.670,0.050
1288553,0.620,0.025
1288554,0.565,-0.005
1288555,0.540,-0.015
1288556,0.495,-0.035
1288557,0.460,-0.055
1288558,0.415,-0.050
1288559,0.380,-0.095
1288560,0.345,-0.080
1288561,0.335,-0.095
1288562,0.325,-0.090
1288563,0.320,-0.100
1288564,0.300,-0.095
1288565,0.305,-0.080
1288566,0.300,-0.105
1288567,0.285,-0.110
1288568,0.275,-0.125
1288569,0.255,-0.135
1288570,0.280,-0.135
1288571,0.260,-0.135
1288572,0.265,-0.160
1288573,0.260,-0.150
1288574,0.265,-0.130
1288575,0.270,-0.145
1288576,0.270,-0.140
1288577,0.265,-0.135
1288578,0.275,-0.135
1288579,0.275,-0.180
1288580,0.285,-0.175
1288581,0.280,-0.155
1288582,0.275,-0.155
1288583,0.270,-0.150
1288584,0.275,-0.195
1288585,0.265,-0.200
1288586,0.275,-0.200
1288587,0.275,-0.185
1288588,0.270,-0.220
1288589,0.290,-0.220
1288590,0.280,-0.230
1288591,0.280,-0.205
1288592,0.280,-0.220
1288593,0.255,-0.235
1288594,0.265,-0.230
1288595,0.250,-0.220
1288596,0.245,-0.220
1288597,0.265,-0.215
1288598,0.240,-0.230
1288599,0.260,-0.215
1288600,0.240,-0.240
1288601,0.245,-0.205
1288602,0.245,-0.210
1288603,0.225,-0.220
1288604,0.215,-0.215
1288605,0.220,-0.200
1288606,0.230,-0.205
1288607,0.235,-0.205
1288608,0.215,-0.180
1288609,0.215,-0.180
1288610,0.215,-0.195
1288611,0.200,-0.215
1288612,0.215,-0.215
1288613,0.215,-0.200
1288614,0.195,-0.200
1288615,0.195,-0.185
1288616,0.200,-0.175
1288617,0.190,-0.165
1288618,0.180,-0.175
1288619,0.205,-0.170
1288620,0.195,-0.145
1288621,0.170,-0.080
1288622,0.155,-0.060
1288623,0.210,-0.050
1288624,0.240,-0.045
1288625,0.260,-0.015
1288626,0.285,0.010
1288627,0.315,0.040
1288628,0.350,0.045
1288629,0.390,0.040
1288630,0.385,0.015
1288631,0.365,0.025
1288632,0.355,0.000
1288633,0.290,0.000
1288634,0.235,-0.020
1288635,0.205,-0.050
1288636,0.160,-0.090
1288637,0.170,-0.120
1288638,0.130,-0.140
1288639,0.085,-0.120
1288640,0.075,-0.140
1288641,0.075,-0.205
1288642,0.100,-0.250
1288643,0.100,-0.260
1288644,0.095,-0.245
1288645,0.105,-0.250
1288646,0.085,-0.230
1288647,0.090,-0.230
1288648,0.085,-0.235
1288649,0.090,-0.235
1288650,0.105,-0.240
1288651,0.080,-0.255
1288652,0.085,-0.245
1288653,0.095,-0.255
1288654,0.075,-0.245
1288655,0.090,-0.215
1288656,0.075,-0.220
1288657,0.100,-0.220
1288658,0.090,-0.220
1288659,0.075,-0.225
1288660,0.065,-0.230
1288661,0.060,-0.250
1288662,0.080,-0.235
1288663,0.090,-0.215
1288664,0.085,-0.175
1288665,0.040,-0.150
1288666,0.080,-0.030
1288667,0.105,0.105
1288668,0.145,0.285
1288669,0.220,0.560
1288670,0.165,0.775
1288671,-0.020,0.825
1288672,-0.425,0.875
1288673,-1.055,0.975
1288674,-1.765,1.095
1288675,-2.345,1.165
1288676,-2.715,1.130
1288677,-2.810,1.105
1288678,-2.680,1.080
1288679,-2.520,1.000
1288680,-2.345,0.960
1288681,-2.215,0.850
1288682,-2.035,0.735
1288683,-1.860,0.590
1288684,-1.690,0.470
1288685,-1.590,0.435
1288686,-1.475,0.460
1288687,-1.335,0.420
1288688,-1.200,0.280
1288689,-1.070,-0.015
1288690,-0.970,-0.350
1288691,-0.870,-0.525
1288692,-0.715,-0.590
1288693,-0.570,-0.585
1288694,-0.440,-0.525
1288695,-0.290,-0.430
1288696,-0.150,-0.360
1288697,-0.030,-0.335
1288698,0.135,-0.300
1288699,0.275,-0.285
1288700,0.385,-0.280
1288701,0.445,-0.265
1288702,0.495,-0.260
1288703,0.520,-0.240
1288704,0.530,-0.220
1288705,0.550,-0.210
1288706,0.565,-0.215
1288707,0.620,-0.235
1288708,0.625,-0.190
1288709,0.640,-0.200
1288710,0.650,-0.200
1288711,0.635,-0.185
1288712,0.670,-0.145
1288713,0.685,-0.160
1288714,0.700,-0.160
1288715,0.690,-0.170
1288716,0.720,-0.180
1288717,0.735,-0.180
1288718,0.755,-0.160
1288719,0.765,-0.160
1288720,0.785,-0.140
1288721,0.820,-0.125
1288722,0.835,-0.120
1288723,0.850,-0.125
1288724,0.865,-0.120
1288725,0.910,-0.120
1288726,0.925,-0.130
1288727,0.930,-0.105
1288728,0.955,-0.100
1288729,0.995,-0.080
1288730,1.010,-0.060
1288731,1.015,-0.070
1288732,1.035,-0.080
1288733,1.040,-0.070
1288734,1.060,-0.040
1288735,1.065,-0.030
1288736,1.045,-0.055
1288737,1.030,-0.030
1288738,1.020,-0.005
1288739,1.000,-0.015
1288740,0.965,0.010
1288741,0.920,0.035
1288742,0.905,0.035
1288743,0.825,0.030
1288744,0.785,0.035
1288745,0.750,0.040
1288746,0.695,0.050
1288747,0.660,0.045
1288748,0.605,0.030
1288749,0.560,0.000
1288750,0.520,-0.010
1288751,0.455,-0.020
1288752,0.420,-0.025
1288753,0.370,-0.060
1288754,0.350,-0.090
1288755,0.335,-0.100
1288756,0.280,-0.100
1288757,0.265,-0.115
1288758,0.255,-0.120
1288759,0.230,-0.100
1288760,0.210,-0.115
1288761,0.215,-0.145
1288762,0.195,-0.170
1288763,0.155,-0.155
1288764,0.175,-0.155
1288765,0.175,-0.190
1288766,0.170,-0.185
1288767,0.190,-0.185
1288768,0.165,-0.165
1288769,0.150,-0.185
1288770,0.150,-0.200
1288771,0.170,-0.185
1288772,0.175,-0.175
1288773,0.165,-0.200
1288774,0.185,-0.175
1288775,0.205,-0.185
1288776,0.190,-0.145
1288777,0.200,-0.155
1288778,0.190,-0.175
1288779,0.185,-0.190
1288780,0.195,-0.165
1288781,0.195,-0.145
1288782,0.205,-0.155
1288783,0.225,-0.170
1288784,0.240,-0.170
1288785,0.210,-0.205
1288786,0.230,-0.205
1288787,0.215,-0.205
1288788,0.225,-0.185
1288789,0.240,-0.170
1288790,0.230,-0.190
1288791,0.240,-0.220
1288792,0.225,-0.205
1288793,0.225,-0.170
1288794,0.215,-0.190
1288795,0.205,-0.200
1288796,0.195,-0.170
1288797,0.185,-0.175
1288798,0.200,-0.175
1288799,0.200,-0.160
1288800,0.210,-0.180
1288801,0.200,-0.155
1288802,0.200,-0.140
1288803,0.195,-0.140
1288804,0.200,-0.165
1288805,0.185,-0.160
1288806,0.175,-0.150
1288807,0.200,-0.120
1288808,0.185,-0.125
1288809,0.190,-0.120
1288810,0.190,-0.105
1288811,0.185,-0.115
1288812,0.185,-0.110
1288813,0.200,-0.075
1288814,0.190,-0.045
1288815,0.200,-0.060
1288816,0.185,-0.075
1288817,0.195,-0.025
1288818,0.190,0.015
1288819,0.215,0.055
1288820,0.265,0.065
1288821,0.280,0.115
1288822,0.300,0.115
1288823,0.355,0.145
1288824,0.370,0.165
1288825,0.430,0.170
1288826,0.420,0.155
1288827,0.410,0.140
1288828,0.395,0.100
1288829,0.305,0.080
1288830,0.265,0.105
1288831,0.230,0.075
1288832,0.215,0.025
1288833,0.200,-0.005
1288834,0.145,0.000
1288835,0.105,-0.010
1288836,0.095,-0.060
1288837,0.090,-0.120
1288838,0.095,-0.120
1288839,0.145,-0.110
1288840,0.110,-0.105
1288841,0.100,-0.105
1288842,0.105,-0.115
1288843,0.115,-0.130
1288844,0.110,-0.125
1288845,0.090,-0.120
1288846,0.105,-0.120
1288847,0.125,-0.090
1288848,0.120,-0.095
1288849,0.100,-0.095
1288850,0.105,-0.085
1288851,0.115,-0.090
1288852,0.115,-0.090
1288853,0.120,-0.090
1288854,0.085,-0.105
1288855,0.105,-0.110
1288856,0.125,-0.095
1288857,0.125,-0.080
1288858,0.130,-0.040
1288859,0.120,-0.045
1288860,0.100,0.005
1288861,0.115,0.135
1288862,0.140,0.290
1288863,0.225,0.550
1288864,0.215,0.850
1288865,0.080,0.970
1288866,-0.245,1.000
1288867,-0.830,1.070
1288868,-1.580,1.220
1288869,-2.220,1.330
1288870,-2.640,1.300
1288871,-2.805,1.250
1288872,-2.705,1.195
1288873,-2.535,1.150
1288874,-2.360,1.040
1288875,-2.210,0.955
1288876,-2.045,0.825
1288877,-1.850,0.690
1288878,-1.675,0.595
1288879,-1.560,0.560
1288880,-1.410,0.540
1288881,-1.270,0.520
1288882,-1.155,0.370
1288883,-1.045,0.040
1288884,-0.930,-0.310
1288885,-0.800,-0.500
1288886,-0.685,-0.545
1288887,-0.535,-0.510
1288888,-0.420,-0.420
1288889,-0.260,-0.320
1288890,-0.085,-0.275
1288891,0.055,-0.240
1288892,0.240,-0.195
1288893,0.380,-0.185
1288894,0.455,-0.185
1288895,0.510,-0.185
1288896,0.550,-0.145
1288897,0.570,-0.125
1288898,0.600,-0.150
1288899,0.625,-0.160
1288900,0.620,-0.145
1288901,0.625,-0.120
1288902,0.645,-0.125
1288903,0.655,-0.125
1288904,0.670,-0.125
1288905,0.685,-0.105
1288906,0.695,-0.070
1288907,0.700,-0.105
1288908,0.705,-0.095
1288909,0.710,-0.080
1288910,0.715,-0.070
1288911,0.755,-0.075
1288912,0.795,-0.095
1288913,0.795,-0.055
1288914,0.835,-0.050
1288915,0.845,-0.085
1288916,0.875,-0.065
1288917,0.895,-0.050
1288918,0.890,-0.055
1288919,0.910,-0.065
1288920,0.935,-0.080
1288921,0.980,-0.065
1288922,0.965,-0.055
1288923,1.000,-0.045
1288924,1.030,-0.035
1288925,1.050,-0.035
1288926,1.035,-0.010
1288927,1.020,-0.010
1288928,1.030,-0.035
1288929,1.000,-0.050
1288930,0.980,-0.020
1288931,0.975,-0.005
1288932,0.935,-0.005
1288933,0.895,-0.025
1288934,0.830,0.005
1288935,0.785,0.015
1288936,0.735,0.015
1288937,0.670,0.035
1288938,0.625,0.010
1288939,0.550,-0.015
1288940,0.500,-0.005
1288941,0.465,-0.040
1288942,0.395,-0.035
1288943,0.360,-0.050
1288944,0.335,-0.070
1288945,0.300,-0.085
1288946,0.245,-0.070
1288947,0.215,-0.080
1288948,0.200,-0.110
1288949,0.190,-0.145
1288950,0.165,-0.130
1288951,0.155,-0.150
1288952,0.165,-0.135
1288953,0.125,-0.160
1288954,0.135,-0.150
1288955,0.130,-0.170
1288956,0.135,-0.180
1288957,0.135,-0.175
1288958,0.105,-0.180
1288959,0.145,-0.180
1288960,0.135,-0.195
1288961,0.150,-0.180
1288962,0.135,-0.190
1288963,0.140,-0.185
1288964,0.155,-0.200
1288965,0.150,-0.215
1288966,0.155,-0.210
1288967,0.160,-0.220
1288968,0.180,-0.210
1288969,0.175,-0.230
1288970,0.160,-0.240
1288971,0.150,-0.235
1288972,0.180,-0.235
1288973,0.205,-0.250
1288974,0.180,-0.265
1288975,0.170,-0.250
1288976,0.185,-0.260
1288977,0.170,-0.275
1288978,0.145,-0.275
1288979,0.170,-0.265
1288980,0.150,-0.260
1288981,0.170,-0.290
1288982,0.160,-0.275
1288983,0.145,-0.245
1288984,0.145,-0.255
1288985,0.150,-0.280
1288986,0.140,-0.280
1288987,0.145,-0.265
1288988,0.135,-0.280
1288989,0.120,-0.285
1288990,0.140,-0.265
1288991,0.125,-0.250
1288992,0.135,-0.270
1288993,0.105,-0.270
1288994,0.110,-0.260
1288995,0.105,-0.245
1288996,0.090,-0.240
1288997,0.115,-0.255
1288998,0.100,-0.250
1288999,0.105,-0.210
1289000,0.110,-0.215
1289001,0.080,-0.190
1289002,0.120,-0.180
1289003,0.100,-0.110
1289004,0.100,-0.100
1289005,0.145,-0.080
1289006,0.180,-0.050
1289007,0.215,-0.035
1289008,0.255,-0.020
1289009,0.290,-0.035
1289010,0.315,-0.030
1289011,0.305,-0.075
1289012,0.285,-0.070
1289013,0.215,-0.080
1289014,0.165,-0.105
1289015,0.135,-0.125
1289016,0.085,-0.160
1289017,0.070,-0.185
1289018,0.030,-0.210
1289019,0.020,-0.210
1289020,0.000,-0.235
1289021,-0.020,-0.290
1289022,-0.010,-0.325
1289023,0.000,-0.290
1289024,0.000,-0.290
1289025,-0.020,-0.320
1289026,0.000,-0.310
1289027,-0.005,-0.295
1289028,0.000,-0.280
1289029,-0.025,-0.295
1289030,-0.015,-0.315
1289031,0.000,-0.285
1289032,0.010,-0.280
1289033,0.000,-0.260
1289034,-0.030,-0.315
1289035,-0.030,-0.270
1289036,-0.025,-0.270
1289037,-0.025,-0.280
1289038,-0.015,-0.275
1289039,-0.020,-0.265
1289040,-0.020,-0.240
1289041,-0.010,-0.245
1289042,-0.020,-0.215
1289043,-0.005,-0.200
1289044,-0.025,-0.085
1289045,0.010,0.055
1289046,0.065,0.255
1289047,0.150,0.545
1289048,0.075,0.735
1289049,-0.195,0.780
1289050,-0.650,0.830
1289051,-1.440,0.980
1289052,-2.140,1.115
1289053,-2.660,1.105
1289054,-2.920,1.070
1289055,-2.845,1.015
1289056,-2.700,0.965
1289057,-2.495,0.885
1289058,-2.345,0.800
1289059,-2.180,0.660
1289060,-1.985,0.550
1289061,-1.825,0.450
1289062,-1.700,0.395
1289063,-1.550,0.370
1289064,-1.410,0.345
1289065,-1.250,0.145
1289066,-1.130,-0.200
1289067,-1.015,-0.505
1289068,-0.910,-0.585
1289069,-0.750,-0.635
1289070,-0.610,-0.580
1289071,-0.475,-0.500
1289072,-0.320,-0.415
1289073,-0.135,-0.380
1289074,0.030,-0.330
1289075,0.205,-0.285
1289076,0.295,-0.275
1289077,0.375,-0.275
1289078,0.420,-0.275
1289079,0.455,-0.260
1289080,0.480,-0.260
1289081,0.480,-0.225
1289082,0.515,-0.235
1289083,0.505,-0.230
1289084,0.515,-0.195
1289085,0.550,-0.190
1289086,0.565,-0.175
1289087,0.600,-0.150
1289088,0.600,-0.150
1289089,0.610,-0.150
1289090,0.650,-0.135
1289091,0.670,-0.145
1289092,0.660,-0.110
1289093,0.705,-0.110
1289094,0.705,-0.100
1289095,0.735,-0.085
1289096,0.750,-0.090
1289097,0.765,-0.080
1289098,0.805,-0.080
1289099,0.845,-0.045
1289100,0.845,-0.070
1289101,0.880,-0.040
1289102,0.920,-0.050
1289103,0.930,-0.035
1289104,0.960,-0.005
1289105,0.990,-0.020
1289106,1.010,0.010
1289107,1.000,-0.025
1289108,1.000,0.010
1289109,1.015,0.005
1289110,1.030,0.010
1289111,1.025,0.010
1289112,0.995,0.025
1289113,0.960,0.030
1289114,0.945,0.040
1289115,0.920,0.030
1289116,0.875,0.050
1289117,0.815,0.070
1289118,0.765,0.050
1289119,0.695,0.055
1289120,0.675,0.055
1289121,0.600,0.045
1289122,0.540,0.045
1289123,0.480,0.020
1289124,0.425,-0.005
1289125,0.380,-0.010
1289126,0.350,-0.025
1289127,0.300,-0.040
1289128,0.250,-0.085
1289129,0.225,-0.070
1289130,0.200,-0.090
1289131,0.180,-0.110
1289132,0.195,-0.145
1289133,0.160,-0.120
1289134,0.160,-0.125
1289135,0.150,-0.135
1289136,0.135,-0.150
1289137,0.135,-0.170
1289138,0.160,-0.155
1289139,0.145,-0.140
1289140,0.125,-0.140
1289141,0.125,-0.140
1289142,0.125,-0.150
1289143,0.140,-0.170
1289144,0.150,-0.175
1289145,0.140,-0.190
1289146,0.135,-0.180
1289147,0.155,-0.190
1289148,0.145,-0.210
1289149,0.135,-0.195
1289150,0.150,-0.205
1289151,0.155,-0.210
1289152,0.155,-0.220
1289153,0.180,-0.190
1289154,0.165,-0.195
1289155,0.195,-0.225
1289156,0.185,-0.235
1289157,0.155,-0.225
1289158,0.150,-0.210
1289159,0.170,-0.250
1289160,0.170,-0.245
1289161,0.165,-0.265
1289162,0.165,-0.235
1289163,0.190,-0.255
1289164,0.180,-0.275
1289165,0.155,-0.260
1289166,0.170,-0.260
1289167,0.165,-0.265
1289168,0.150,-0.275
1289169,0.130,-0.290
1289170,0.140,-0.280
1289171,0.125,-0.285
1289172,0.125,-0.275
1289173,0.125,-0.270
1289174,0.135,-0.270
1289175,0.115,-0.265
1289176,0.120,-0.280
1289177,0.110,-0.260
1289178,0.105,-0.280
1289179,0.100,-0.270
1289180,0.110,-0.285
1289181,0.095,-0.275
1289182,0.075,-0.260
1289183,0.085,-0.250
1289184,0.050,-0.255
1289185,0.080,-0.235
1289186,0.070,-0.190
1289187,0.060,-0.175
1289188,0.090,-0.155
1289189,0.120,-0.175
1289190,0.135,-0.095
1289191,0.190,-0.070
1289192,0.200,-0.060
1289193,0.270,-0.055
1289194,0.285,-0.055
1289195,0.290,-0.080
1289196,0.290,-0.105
1289197,0.215,-0.145
1289198,0.205,-0.135
1289199,0.135,-0.150
1289200,0.095,-0.190
1289201,0.070,-0.225
1289202,0.065,-0.240
1289203,0.020,-0.240
1289204,-0.010,-0.285
1289205,-0.030,-0.320
1289206,-0.040,-0.345
1289207,-0.020,-0.375
1289208,-0.015,-0.365
1289209,-0.030,-0.370
1289210,-0.035,-0.370
1289211,-0.040,-0.365
1289212,-0.030,-0.370
1289213,-0.045,-0.415
1289214,-0.055,-0.380
1289215,-0.060,-0.365
1289216,-0.065,-0.370
1289217,-0.030,-0.375
1289218,-0.045,-0.375
1289219,-0.050,-0.375
1289220,-0.040,-0.365
1289221,-0.040,-0.395
1289222,-0.040,-0.395
1289223,-0.040,-0.370
1289224,-0.070,-0.375
1289225,-0.070,-0.350
1289226,-0.060,-0.345
1289227,-0.080,-0.340
1289228,-0.070,-0.335
1289229,-0.060,-0.280
1289230,-0.060,-0.155
1289231,-0.025,0.015
1289232,0.030,0.275
1289233,0.060,0.595
1289234,-0.090,0.735
1289235,-0.410,0.805
1289236,-0.960,0.850
1289237,-1.655,0.975
1289238,-2.285,1.085
1289239,-2.715,1.090
1289240,-2.930,1.005
1289241,-2.885,0.940
1289242,-2.730,0.865
1289243,-2.540,0.770
1289244,-2.390,0.670
1289245,-2.265,0.565
1289246,-2.055,0.410
1289247,-1.875,0.305
1289248,-1.765,0.255
1289249,-1.605,0.190
1289250,-1.460,0.150
1289251,-1.375,0.050
1289252,-1.235,-0.175
1289253,-1.155,-0.500
1289254,-1.010,-0.745
1289255,-0.835,-0.820
1289256,-0.750,-0.780
1289257,-0.625,-0.710
1289258,-0.450,-0.650
1289259,-0.305,-0.600
1289260,-0.150,-0.550
1289261,0.000,-0.485
1289262,0.155,-0.445
1289263,0.255,-0.445
1289264,0.305,-0.440
1289265,0.345,-0.465
1289266,0.375,-0.455
1289267,0.400,-0.430
1289268,0.425,-0.425
1289269,0.435,-0.415
1289270,0.465,-0.395
1289271,0.460,-0.380
1289272,0.500,-0.385
1289273,0.500,-0.365
1289274,0.515,-0.365
1289275,0.540,-0.355
1289276,0.550,-0.355
1289277,0.525,-0.355
1289278,0.545,-0.330
1289279,0.580,-0.300
1289280,0.595,-0.330
1289281,0.610,-0.325
1289282,0.615,-0.295
1289283,0.655,-0.265
1289284,0.690,-0.285
1289285,0.700,-0.280
1289286,0.715,-0.260
1289287,0.740,-0.265
1289288,0.745,-0.280
1289289,0.780,-0.260
1289290,0.795,-0.210
1289291,0.825,-0.225
1289292,0.835,-0.235
1289293,0.855,-0.210
1289294,0.870,-0.225
1289295,0.890,-0.210
1289296,0.890,-0.200
1289297,0.900,-0.160
1289298,0.890,-0.175
1289299,0.900,-0.165
1289300,0.870,-0.165
1289301,0.870,-0.160
1289302,0.825,-0.120
1289303,0.805,-0.115
1289304,0.750,-0.090
1289305,0.725,-0.090
1289306,0.670,-0.110
1289307,0.625,-0.090
1289308,0.575,-0.085
1289309,0.530,-0.095
1289310,0.480,-0.120
1289311,0.415,-0.125
1289312,0.370,-0.160
1289313,0.330,-0.185
1289314,0.275,-0.180
1289315,0.245,-0.205
1289316,0.220,-0.220
1289317,0.155,-0.255
1289318,0.135,-0.285
1289319,0.140,-0.280
1289320,0.125,-0.270
1289321,0.095,-0.290
1289322,0.065,-0.320
1289323,0.045,-0.330
1289324,0.055,-0.320
1289325,0.030,-0.315
1289326,0.030,-0.325
1289327,0.050,-0.320
1289328,0.035,-0.320
1289329,0.030,-0.330
1289330,0.035,-0.340
1289331,0.040,-0.340
1289332,0.065,-0.375
1289333,0.035,-0.365
1289334,0.045,-0.355
1289335,0.045,-0.360
1289336,0.035,-0.390
1289337,0.025,-0.380
1289338,0.035,-0.380
1289339,0.035,-0.400
1289340,0.015,-0.395
1289341,0.045,-0.410
1289342,0.060,-0.410
1289343,0.040,-0.415
1289344,0.045,-0.425
1289345,0.040,-0.415
1289346,0.050,-0.415
1289347,0.040,-0.450
1289348,0.050,-0.440
1289349,0.045,-0.475
1289350,0.045,-0.420
1289351,0.050,-0.430
1289352,0.060,-0.460
1289353,0.050,-0.450
1289354,0.020,-0.440
1289355,0.035,-0.480
1289356,0.040,-0.500
1289357,0.040,-0.465
1289358,0.040,-0.460
1289359,0.005,-0.470
1289360,0.020,-0.470
1289361,0.015,-0.450
1289362,0.010,-0.440
1289363,0.010,-0.430
1289364,0.005,-0.440
1289365,-0.010,-0.440
1289366,0.005,-0.445
1289367,0.015,-0.405
1289368,0.000,-0.445
1289369,0.020,-0.455
1289370,0.015,-0.455
1289371,0.000,-0.410
1289372,0.010,-0.410
1289373,0.000,-0.430
1289374,0.000,-0.420
1289375,-0.035,-0.415
1289376,-0.020,-0.395
1289377,-0.035,-0.415
1289378,-0.020,-0.390
1289379,-0.005,-0.400
1289380,-0.020,-0.410
1289381,-0.005,-0.390
1289382,0.000,-0.360
1289383,0.000,-0.330
1289384,0.015,-0.320
1289385,0.040,-0.275
1289386,0.070,-0.275
1289387,0.070,-0.250
1289388,0.100,-0.200
1289389,0.140,-0.190
1289390,0.155,-0.190
1289391,0.190,-0.225
1289392,0.200,-0.230
1289393,0.175,-0.220
1289394,0.130,-0.260
1289395,0.065,-0.290
1289396,0.015,-0.295
1289397,0.005,-0.320
1289398,0.000,-0.365
1289399,-0.005,-0.375
1289400,-0.030,-0.370
1289401,-0.065,-0.375
1289402,-0.095,-0.420
1289403,-0.080,-0.455
1289404,-0.070,-0.475
1289405,-0.070,-0.480
1289406,-0.120,-0.475
1289407,-0.090,-0.495
1289408,-0.110,-0.485
1289409,-0.100,-0.475
1289410,-0.090,-0.480
1289411,-0.120,-0.470
1289412,-0.100,-0.490
1289413,-0.135,-0.480
1289414,-0.125,-0.475
1289415,-0.120,-0.475
1289416,-0.110,-0.465
1289417,-0.120,-0.480
1289418,-0.120,-0.485
1289419,-0.110,-0.455
1289420,-0.110,-0.440
1289421,-0.120,-0.465
1289422,-0.125,-0.470
1289423,-0.120,-0.450
1289424,-0.125,-0.420
1289425,-0.105,-0.410
1289426,-0.095,-0.355
1289427,-0.120,-0.235
1289428,-0.095,-0.035
1289429,-0.040,0.245
1289430,0.000,0.590
1289431,-0.110,0.840
1289432,-0.370,0.935
1289433,-0.795,0.965
1289434,-1.450,1.035
1289435,-2.045,1.170
1289436,-2.515,1.220
1289437,-2.800,1.145
1289438,-2.855,1.055
1289439,-2.730,0.990
1289440,-2.550,0.860
1289441,-2.375,0.755
1289442,-2.255,0.620
1289443,-2.135,0.480
1289444,-1.905,0.370
1289445,-1.770,0.295
1289446,-1.640,0.280
1289447,-1.525,0.250
1289448,-1.385,0.175
1289449,-1.270,-0.080
1289450,-1.175,-0.470
1289451,-1.065,-0.765
1289452,-0.955,-0.895
1289453,-0.825,-0.900
1289454,-0.710,-0.870
1289455,-0.600,-0.810
1289456,-0.465,-0.745
1289457,-0.290,-0.680
1289458,-0.150,-0.620
1289459,0.020,-0.600
1289460,0.145,-0.575
1289461,0.235,-0.560
1289462,0.300,-0.535
1289463,0.330,-0.550
1289464,0.340,-0.550
1289465,0.380,-0.580
1289466,0.400,-0.540
1289467,0.425,-0.530
1289468,0.415,-0.535
1289469,0.455,-0.530
1289470,0.465,-0.520
1289471,0.470,-0.505
1289472,0.480,-0.495
1289473,0.490,-0.520
1289474,0.490,-0.490
1289475,0.515,-0.470
1289476,0.545,-0.490
1289477,0.555,-0.510
1289478,0.565,-0.495
1289479,0.595,-0.495
1289480,0.605,-0.480
1289481,0.600,-0.500
1289482,0.610,-0.495
1289483,0.665,-0.485
1289484,0.665,-0.480
1289485,0.695,-0.495
1289486,0.720,-0.500
1289487,0.770,-0.470
1289488,0.780,-0.460
1289489,0.795,-0.475
1289490,0.810,-0.485
1289491,0.835,-0.465
1289492,0.840,-0.450
1289493,0.815,-0.450
1289494,0.850,-0.430
1289495,0.875,-0.450
1289496,0.875,-0.435
1289497,0.855,-0.425
1289498,0.855,-0.410
1289499,0.845,-0.415
1289500,0.850,-0.360
1289501,0.815,-0.340
1289502,0.805,-0.330
1289503,0.740,-0.310
1289504,0.735,-0.260
1289505,0.670,-0.230
1289506,0.630,-0.215
1289507,0.580,-0.235
1289508,0.550,-0.230
1289509,0.510,-0.230
1289510,0.455,-0.225
1289511,0.415,-0.250
1289512,0.355,-0.240
1289513,0.325,-0.250
1289514,0.305,-0.255
1289515,0.255,-0.275
1289516,0.215,-0.310
1289517,0.210,-0.295
1289518,0.150,-0.300
1289519,0.125,-0.295
1289520,0.130,-0.320
1289521,0.105,-0.335
1289522,0.085,-0.295
1289523,0.080,-0.320
1289524,0.085,-0.355
1289525,0.080,-0.320
1289526,0.075,-0.295
1289527,0.090,-0.320
1289528,0.060,-0.335
1289529,0.055,-0.335
1289530,0.070,-0.350
1289531,0.050,-0.340
1289532,0.050,-0.360
1289533,0.070,-0.345
1289534,0.075,-0.365
1289535,0.085,-0.350
1289536,0.070,-0.345
1289537,0.065,-0.335
1289538,0.075,-0.360
1289539,0.090,-0.365
1289540,0.085,-0.355
1289541,0.120,-0.365
1289542,0.115,-0.370
1289543,0.115,-0.385
1289544,0.105,-0.380
1289545,0.135,-0.380
1289546,0.125,-0.375
1289547,0.125,-0.385
1289548,0.105,-0.375
1289549,0.135,-0.385
1289550,0.150,-0.390
1289551,0.110,-0.400
1289552,0.135,-0.370
1289553,0.130,-0.380
1289554,0.150,-0.385
1289555,0.130,-0.395
1289556,0.130,-0.405
1289557,0.130,-0.390
1289558,0.110,-0.400
1289559,0.140,-0.385
1289560,0.150,-0.380
1289561,0.135,-0.375
1289562,0.130,-0.385
1289563,0.125,-0.375
1289564,0.145,-0.390
1289565,0.125,-0.355
1289566,0.120,-0.345
1289567,0.105,-0.375
1289568,0.100,-0.360
1289569,0.090,-0.360
1289570,0.075,-0.350
1289571,0.105,-0.350
1289572,0.105,-0.355
1289573,0.075,-0.330
1289574,0.090,-0.355
1289575,0.085,-0.320
1289576,0.080,-0.320
1289577,0.100,-0.295
1289578,0.090,-0.240
1289579,0.120,-0.210
1289580,0.135,-0.195
1289581,0.170,-0.205
1289582,0.215,-0.145
1289583,0.230,-0.125
1289584,0.260,-0.100
1289585,0.300,-0.110
1289586,0.315,-0.130
1289587,0.290,-0.140
1289588,0.280,-0.160
1289589,0.235,-0.165
1289590,0.175,-0.175
1289591,0.125,-0.200
1289592,0.110,-0.220
1289593,0.090,-0.260
1289594,0.075,-0.270
1289595,0.055,-0.255
1289596,0.025,-0.265
1289597,-0.005,-0.330
1289598,0.000,-0.390
1289599,0.010,-0.390
1289600,0.030,-0.385
1289601,0.030,-0.385
1289602,0.015,-0.395
1289603,0.010,-0.390
1289604,0.000,-0.395
1289605,0.010,-0.390
1289606,0.020,-0.385
1289607,-0.010,-0.405
1289608,-0.005,-0.385
1289609,0.005,-0.375
1289610,0.000,-0.360
1289611,0.015,-0.385
1289612,-0.020,-0.375
1289613,-0.015,-0.330
1289614,0.000,-0.360
1289615,-0.025,-0.340
1289616,-0.025,-0.380
1289617,-0.010,-0.350
1289618,-0.005,-0.360
1289619,-0.015,-0.355
1289620,-0.005,-0.350
1289621,-0.020,-0.320
1289622,0.015,-0.230
1289623,0.005,-0.120
1289624,0.055,0.010
1289625,0.100,0.220
1289626,0.150,0.495
1289627,0.035,0.690
1289628,-0.225,0.745
1289629,-0.675,0.800
1289630,-1.355,0.960
1289631,-2.010,1.115
1289632,-2.475,1.175
1289633,-2.785,1.150
1289634,-2.845,1.100
1289635,-2.715,1.075
1289636,-2.525,0.980
1289637,-2.350,0.905
1289638,-2.245,0.820
1289639,-2.090,0.720
1289640,-1.870,0.595
1289641,-1.705,0.495
1289642,-1.610,0.460
1289643,-1.465,0.430
1289644,-1.320,0.395
1289645,-1.200,0.200
1289646,-1.055,-0.175
1289647,-0.950,-0.520
1289648,-0.835,-0.655
1289649,-0.690,-0.740
1289650,-0.580,-0.720
1289651,-0.460,-0.655
1289652,-0.305,-0.580
1289653,-0.145,-0.520
1289654,0.000,-0.505
1289655,0.150,-0.470
1289656,0.285,-0.440
1289657,0.375,-0.425
1289658,0.425,-0.440
1289659,0.475,-0.415
1289660,0.495,-0.410
1289661,0.515,-0.400
1289662,0.520,-0.400
1289663,0.535,-0.415
1289664,0.580,-0.400
1289665,0.585,-0.385
1289666,0.590,-0.375
1289667,0.590,-0.360
1289668,0.605,-0.365
1289669,0.600,-0.350
1289670,0.645,-0.345
1289671,0.645,-0.345
1289672,0.650,-0.355
1289673,0.650,-0.335
1289674,0.675,-0.315
1289675,0.705,-0.320
1289676,0.740,-0.315
1289677,0.730,-0.305
1289678,0.750,-0.295
1289679,0.775,-0.320
1289680,0.805,-0.325
1289681,0.825,-0.305
1289682,0.845,-0.285
1289683,0.860,-0.295
1289684,0.885,-0.310
1289685,0.910,-0.305
1289686,0.930,-0.290
1289687,0.920,-0.290
1289688,0.960,-0.290
1289689,0.990,-0.285
1289690,0.965,-0.260
1289691,0.970,-0.230
1289692,0.965,-0.265
1289693,0.955,-0.290
1289694,0.960,-0.275
1289695,0.950,-0.230
1289696,0.910,-0.215
1289697,0.870,-0.205
1289698,0.835,-0.190
1289699,0.765,-0.145
1289700,0.695,-0.150
1289701,0.685,-0.160
1289702,0.645,-0.155
1289703,0.590,-0.140
1289704,0.525,-0.130
1289705,0.475,-0.135
1289706,0.450,-0.150
1289707,0.380,-0.160
1289708,0.325,-0.180
1289709,0.305,-0.195
1289710,0.275,-0.220
1289711,0.250,-0.215
1289712,0.225,-0.220
1289713,0.200,-0.230
1289714,0.190,-0.225
1289715,0.185,-0.220
1289716,0.155,-0.235
1289717,0.150,-0.245
1289718,0.155,-0.265
1289719,0.145,-0.280
1289720,0.115,-0.250
1289721,0.120,-0.265
1289722,0.130,-0.275
1289723,0.130,-0.290
1289724,0.135,-0.275
1289725,0.125,-0.300
1289726,0.145,-0.305
1289727,0.130,-0.320
1289728,0.120,-0.315
1289729,0.125,-0.320
1289730,0.130,-0.305
1289731,0.130,-0.330
1289732,0.135,-0.335
1289733,0.135,-0.310
1289734,0.150,-0.345
1289735,0.140,-0.345
1289736,0.150,-0.335
1289737,0.115,-0.315
1289738,0.145,-0.310
1289739,0.140,-0.320
1289740,0.155,-0.350
1289741,0.140,-0.365
1289742,0.165,-0.340
1289743,0.160,-0.320
1289744,0.150,-0.345
1289745,0.165,-0.325
1289746,0.145,-0.320
1289747,0.135,-0.345
1289748,0.150,-0.345
1289749,0.140,-0.360
1289750,0.135,-0.365
1289751,0.135,-0.355
1289752,0.130,-0.365
1289753,0.150,-0.385
1289754,0.145,-0.345
1289755,0.155,-0.335
1289756,0.165,-0.340
1289757,0.130,-0.320
1289758,0.125,-0.330
1289759,0.105,-0.305
1289760,0.105,-0.315
1289761,0.115,-0.340
1289762,0.090,-0.315
1289763,0.110,-0.310
1289764,0.110,-0.300
1289765,0.095,-0.320
1289766,0.090,-0.320
1289767,0.095,-0.295
1289768,0.115,-0.275
1289769,0.100,-0.305
1289770,0.075,-0.330
1289771,0.095,-0.305
1289772,0.100,-0.295
1289773,0.080,-0.270
1289774,0.100,-0.260
1289775,0.075,-0.190
1289776,0.100,-0.155
1289777,0.130,-0.150
1289778,0.145,-0.125
1289779,0.180,-0.090
1289780,0.210,-0.060
1289781,0.260,-0.025
1289782,0.300,-0.045
1289783,0.325,-0.050
1289784,0.325,-0.050
1289785,0.315,-0.070
1289786,0.250,-0.085
1289787,0.180,-0.100
1289788,0.150,-0.110
1289789,0.125,-0.160
1289790,0.110,-0.205
1289791,0.095,-0.200
1289792,0.065,-0.170
1289793,0.045,-0.195
1289794,0.045,-0.245
1289795,0.050,-0.300
1289796,0.090,-0.320
1289797,0.070,-0.295
1289798,0.055,-0.300
1289799,0.045,-0.340
1289800,0.070,-0.330
1289801,0.065,-0.310
1289802,0.050,-0.310
1289803,0.060,-0.325
1289804,0.065,-0.310
1289805,0.060,-0.300
1289806,0.060,-0.295
1289807,0.050,-0.300
1289808,0.055,-0.290
1289809,0.065,-0.295
1289810,0.040,-0.275
1289811,0.045,-0.295
1289812,0.055,-0.295
1289813,0.045,-0.275
1289814,0.045,-0.280
1289815,0.035,-0.305
1289816,0.030,-0.265
1289817,0.055,-0.230
1289818,0.055,-0.140
1289819,0.060,-0.030
1289820,0.085,0.140
1289821,0.160,0.385
1289822,0.160,0.635
1289823,-0.010,0.720
1289824,-0.355,0.785
1289825,-0.955,0.875
1289826,-1.705,1.025
1289827,-2.295,1.105
1289828,-2.700,1.090
1289829,-2.830,1.060
1289830,-2.700,1.040
1289831,-2.560,0.985
1289832,-2.365,0.885
1289833,-2.205,0.810
1289834,-2.080,0.655
1289835,-1.840,0.505
1289836,-1.685,0.430
1289837,-1.575,0.400
1289838,-1.440,0.395
1289839,-1.285,0.320
1289840,-1.155,0.140
1289841,-1.045,-0.190
1289842,-0.935,-0.515
1289843,-0.825,-0.660
1289844,-0.685,-0.695
1289845,-0.540,-0.660
1289846,-0.440,-0.560
1289847,-0.260,-0.475
1289848,-0.105,-0.430
1289849,0.035,-0.405
1289850,0.195,-0.360
1289851,0.335,-0.355
1289852,0.405,-0.320
1289853,0.455,-0.320
1289854,0.480,-0.345
1289855,0.520,-0.305
1289856,0.545,-0.300
1289857,0.570,-0.295
1289858,0.565,-0.295
1289859,0.595,-0.240
1289860,0.585,-0.250
1289861,0.635,-0.250
1289862,0.615,-0.235
1289863,0.640,-0.225
1289864,0.655,-0.210
1289865,0.695,-0.200
1289866,0.695,-0.200
1289867,0.695,-0.205
1289868,0.740,-0.200
1289869,0.750,-0.200
1289870,0.785,-0.180
1289871,0.780,-0.180
1289872,0.815,-0.175
1289873,0.840,-0.165
1289874,0.865,-0.145
1289875,0.865,-0.125
1289876,0.915,-0.115
1289877,0.935,-0.110
1289878,0.940,-0.155
1289879,0.975,-0.160
1289880,1.005,-0.105
1289881,1.030,-0.105
1289882,1.040,-0.115
1289883,1.055,-0.110
1289884,1.060,-0.080
1289885,1.070,-0.075
1289886,1.075,-0.055
1289887,1.090,-0.065
1289888,1.070,-0.070
1289889,1.040,-0.035
1289890,0.995,-0.025
1289891,0.960,-0.015
1289892,0.930,0.000
1289893,0.875,-0.010
1289894,0.815,0.000
1289895,0.775,0.010
1289896,0.725,0.000
1289897,0.660,-0.005
1289898,0.610,0.020
1289899,0.555,-0.005
1289900,0.520,-0.030
1289901,0.475,-0.040
1289902,0.415,-0.030
1289903,0.385,-0.040
1289904,0.360,-0.075
1289905,0.320,-0.095
1289906,0.305,-0.085
1289907,0.280,-0.095
1289908,0.240,-0.125
1289909,0.215,-0.130
1289910,0.225,-0.145
1289911,0.225,-0.150
1289912,0.210,-0.135
1289913,0.185,-0.145
1289914,0.195,-0.155
1289915,0.205,-0.170
1289916,0.180,-0.200
1289917,0.185,-0.165
1289918,0.165,-0.155
1289919,0.165,-0.155
1289920,0.160,-0.165
1289921,0.190,-0.205
1289922,0.195,-0.205
1289923,0.175,-0.205
1289924,0.195,-0.220
1289925,0.170,-0.210
1289926,0.175,-0.220
1289927,0.190,-0.240
1289928,0.210,-0.240
1289929,0.190,-0.240
1289930,0.190,-0.240
1289931,0.190,-0.215
1289932,0.190,-0.220
1289933,0.180,-0.220
1289934,0.195,-0.245
1289935,0.195,-0.250
1289936,0.190,-0.245
1289937,0.210,-0.275
1289938,0.225,-0.285
1289939,0.180,-0.260
1289940,0.200,-0.280
1289941,0.205,-0.275
1289942,0.210,-0.255
1289943,0.205,-0.255
1289944,0.180,-0.280
1289945,0.185,-0.295
1289946,0.195,-0.290
1289947,0.195,-0.290
1289948,0.185,-0.285
1289949,0.155,-0.275
1289950,0.135,-0.280
1289951,0.125,-0.290
1289952,0.145,-0.295
1289953,0.140,-0.280
1289954,0.145,-0.280
1289955,0.145,-0.255
1289956,0.160,-0.290
1289957,0.135,-0.295
1289958,0.125,-0.320
1289959,0.135,-0.275
1289960,0.125,-0.245
1289961,0.110,-0.260
1289962,0.140,-0.285
1289963,0.105,-0.280
1289964,0.110,-0.270
1289965,0.105,-0.265
1289966,0.105,-0.250
1289967,0.095,-0.235
1289968,0.110,-0.250
1289969,0.105,-0.220
1289970,0.130,-0.185
1289971,0.135,-0.120
1289972,0.140,-0.100
1289973,0.165,-0.110
1289974,0.220,-0.110
1289975,0.230,-0.075
1289976,0.260,-0.055
1289977,0.325,-0.060
1289978,0.340,-0.050
1289979,0.350,-0.040
1289980,0.350,-0.060
1289981,0.270,-0.110
1289982,0.215,-0.130
1289983,0.170,-0.165
1289984,0.140,-0.195
1289985,0.110,-0.210
1289986,0.070,-0.210
1289987,0.030,-0.200
1289988,0.015,-0.225
1289989,0.010,-0.295
1289990,0.005,-0.340
1289991,0.035,-0.350
1289992,0.040,-0.335
1289993,0.010,-0.340
1289994,0.005,-0.360
1289995,0.015,-0.340
1289996,0.000,-0.315
1289997,0.000,-0.330
1289998,-0.010,-0.340
1289999,-0.005,-0.330
1290000,0.020,-0.335
1290001,-0.010,-0.330
1290002,-0.015,-0.320
1290003,0.000,-0.340
1290004,-0.005,-0.310
1290005,-0.005,-0.340
1290006,0.015,-0.320
1290007,0.000,-0.320
1290008,0.010,-0.305
1290009,0.000,-0.310
1290010,-0.030,-0.305
1290011,-0.010,-0.320
1290012,0.000,-0.225
1290013,0.005,-0.100
1290014,0.025,0.030
1290015,0.065,0.320
1290016,0.115,0.630
1290017,-0.005,0.845
1290018,-0.315,0.895
1290019,-0.880,0.950
1290020,-1.650,1.085
1290021,-2.245,1.195
1290022,-2.670,1.155
1290023,-2.845,1.095
1290024,-2.705,1.010
1290025,-2.555,0.920
1290026,-2.345,0.795
1290027,-2.230,0.715
1290028,-2.075,0.605
1290029,-1.845,0.465
1290030,-1.690,0.380
1290031,-1.570,0.280
1290032,-1.415,0.245
1290033,-1.305,0.180
1290034,-1.175,-0.005
1290035,-1.075,-0.380
1290036,-0.970,-0.640
1290037,-0.835,-0.740
1290038,-0.695,-0.755
1290039,-0.560,-0.700
1290040,-0.405,-0.625
1290041,-0.285,-0.540
1290042,-0.090,-0.490
1290043,0.065,-0.420
1290044,0.195,-0.395
1290045,0.300,-0.375
1290046,0.360,-0.365
1290047,0.385,-0.355
1290048,0.400,-0.375
1290049,0.430,-0.330
1290050,0.460,-0.340
1290051,0.480,-0.390
1290052,0.495,-0.440
1290053,0.525,-0.405
1290054,0.530,-0.370
1290055,0.520,-0.340
1290056,0.550,-0.325
1290057,0.560,-0.350
1290058,0.565,-0.325
1290059,0.600,-0.295
1290060,0.620,-0.305
1290061,0.605,-0.290
1290062,0.635,-0.280
1290063,0.650,-0.280
1290064,0.670,-0.275
1290065,0.670,-0.250
1290066,0.720,-0.205
1290067,0.730,-0.230
1290068,0.740,-0.280
1290069,0.765,-0.250
1290070,0.805,-0.220
1290071,0.805,-0.195
1290072,0.805,-0.220
1290073,0.855,-0.220
1290074,0.880,-0.215
1290075,0.885,-0.210
1290076,0.900,-0.195
1290077,0.875,-0.165
1290078,0.900,-0.170
1290079,0.895,-0.170
1290080,0.890,-0.160
1290081,0.865,-0.160
1290082,0.855,-0.130
1290083,0.830,-0.100
1290084,0.790,-0.100
1290085,0.735,-0.060
1290086,0.705,-0.040
1290087,0.645,-0.060
1290088,0.600,-0.075
1290089,0.560,-0.075
1290090,0.505,-0.065
1290091,0.465,-0.050
1290092,0.405,-0.070
1290093,0.355,-0.100
1290094,0.315,-0.110
1290095,0.285,-0.140
1290096,0.225,-0.155
1290097,0.195,-0.175
1290098,0.180,-0.160
1290099,0.145,-0.160
1290100,0.120,-0.215
1290101,0.100,-0.280
1290102,0.085,-0.235
1290103,0.085,-0.210
1290104,0.080,-0.250
1290105,0.070,-0.265
1290106,0.070,-0.240
1290107,0.040,-0.235
1290108,0.050,-0.250
1290109,0.080,-0.270
1290110,0.090,-0.270
1290111,0.090,-0.235
1290112,0.070,-0.270
1290113,0.080,-0.295
1290114,0.080,-0.270
1290115,0.100,-0.270
1290116,0.110,-0.270
1290117,0.110,-0.280
1290118,0.100,-0.285
1290119,0.100,-0.285
1290120,0.085,-0.300
1290121,0.090,-0.340
1290122,0.120,-0.355
1290123,0.115,-0.305
1290124,0.140,-0.330
1290125,0.105,-0.350
1290126,0.125,-0.330
1290127,0.110,-0.330
1290128,0.110,-0.335
1290129,0.115,-0.340
1290130,0.120,-0.370
1290131,0.115,-0.340
1290132,0.110,-0.350
1290133,0.120,-0.370
1290134,0.105,-0.365
1290135,0.105,-0.340
1290136,0.065,-0.360
1290137,0.050,-0.375
1290138,0.080,-0.365
1290139,0.070,-0.365
1290140,0.070,-0.360
1290141,0.070,-0.370
1290142,0.060,-0.355
1290143,0.070,-0.310
1290144,0.035,-0.325
1290145,0.040,-0.335
1290146,0.035,-0.335
1290147,0.025,-0.315
1290148,0.010,-0.320
1290149,0.010,-0.320
1290150,0.015,-0.315
1290151,0.015,-0.315
1290152,-0.005,-0.300
1290153,0.010,-0.300
1290154,-0.015,-0.330
1290155,0.010,-0.300
1290156,0.000,-0.305
1290157,0.000,-0.305
1290158,-0.005,-0.285
1290159,0.005,-0.270
1290160,-0.015,-0.280
1290161,0.000,-0.300
1290162,0.000,-0.230
1290163,0.000,-0.195
1290164,0.015,-0.205
1290165,0.025,-0.200
1290166,0.040,-0.140
1290167,0.095,-0.105
1290168,0.110,-0.090
1290169,0.150,-0.100
1290170,0.170,-0.090
1290171,0.170,-0.110
1290172,0.180,-0.120
1290173,0.190,-0.130
1290174,0.135,-0.130
1290175,0.090,-0.135
1290176,0.030,-0.180
1290177,0.005,-0.215
1290178,-0.015,-0.225
1290179,-0.040,-0.230
1290180,-0.080,-0.220
1290181,-0.080,-0.295
1290182,-0.090,-0.335
1290183,-0.075,-0.335
1290184,-0.055,-0.330
1290185,-0.080,-0.340
1290186,-0.105,-0.350
1290187,-0.085,-0.330
1290188,-0.100,-0.340
1290189,-0.105,-0.325
1290190,-0.115,-0.330
1290191,-0.125,-0.350
1290192,-0.130,-0.320
1290193,-0.110,-0.320
1290194,-0.090,-0.335
1290195,-0.105,-0.340
1290196,-0.110,-0.320
1290197,-0.090,-0.320
1290198,-0.100,-0.300
1290199,-0.115,-0.295
1290200,-0.090,-0.285
1290201,-0.085,-0.300
1290202,-0.100,-0.280
1290203,-0.085,-0.240
1290204,-0.095,-0.195
1290205,-0.065,-0.065
1290206,-0.040,0.080
1290207,0.015,0.360
1290208,0.075,0.705
1290209,-0.015,0.970
1290210,-0.300,1.085
1290211,-0.720,1.125
1290212,-1.400,1.230
1290213,-2.015,1.350
1290214,-2.465,1.455
1290215,-2.750,1.350
1290216,-2.775,1.270
1290217,-2.625,1.170
1290218,-2.390,1.030
1290219,-2.250,0.930
1290220,-2.135,0.810
1290221,-1.950,0.675
1290222,-1.755,0.565
1290223,-1.625,0.530
1290224,-1.480,0.485
1290225,-1.350,0.450
1290226,-1.195,0.255
1290227,-1.085,-0.105
1290228,-1.000,-0.495
1290229,-0.870,-0.660
1290230,-0.750,-0.730
1290231,-0.640,-0.715
1290232,-0.520,-0.620
1290233,-0.360,-0.530
1290234,-0.225,-0.485
1290235,-0.080,-0.435
1290236,0.090,-0.400
1290237,0.210,-0.385
1290238,0.295,-0.375
1290239,0.350,-0.375
1290240,0.385,-0.370
1290241,0.425,-0.345
1290242,0.435,-0.330
1290243,0.475,-0.330
1290244,0.490,-0.360
1290245,0.505,-0.350
1290246,0.535,-0.365
1290247,0.530,-0.360
1290248,0.550,-0.335
1290249,0.550,-0.300
1290250,0.560,-0.275
1290251,0.580,-0.300
1290252,0.590,-0.310
1290253,0.605,-0.300
1290254,0.630,-0.280
1290255,0.630,-0.275
1290256,0.675,-0.305
1290257,0.700,-0.310
1290258,0.715,-0.315
1290259,0.735,-0.300
1290260,0.735,-0.290
1290261,0.770,-0.315
1290262,0.780,-0.300
1290263,0.800,-0.320
1290264,0.840,-0.330
1290265,0.830,-0.360
1290266,0.855,-0.325
1290267,0.865,-0.330
1290268,0.880,-0.365
1290269,0.905,-0.345
1290270,0.915,-0.340
1290271,0.920,-0.280
1290272,0.920,-0.320
1290273,0.920,-0.320
1290274,0.900,-0.265
1290275,0.870,-0.220
1290276,0.855,-0.200
1290277,0.840,-0.200
1290278,0.830,-0.175
1290279,0.785,-0.140
1290280,0.760,-0.110
1290281,0.700,-0.105
1290282,0.645,-0.070
1290283,0.590,-0.040
1290284,0.525,-0.065
1290285,0.495,-0.060
1290286,0.455,-0.070
1290287,0.435,-0.050
1290288,0.385,-0.075
1290289,0.330,-0.115
1290290,0.290,-0.105
1290291,0.260,-0.090
1290292,0.230,-0.110
1290293,0.205,-0.120
1290294,0.205,-0.110
1290295,0.165,-0.110
1290296,0.155,-0.110
1290297,0.125,-0.150
1290298,0.150,-0.155
1290299,0.140,-0.180
1290300,0.150,-0.165
1290301,0.105,-0.160
1290302,0.145,-0.150
1290303,0.130,-0.145
1290304,0.105,-0.150
1290305,0.090,-0.185
1290306,0.135,-0.205
1290307,0.125,-0.190
1290308,0.120,-0.180
1290309,0.105,-0.185
1290310,0.110,-0.210
1290311,0.120,-0.200
1290312,0.145,-0.195
1290313,0.130,-0.215
1290314,0.140,-0.225
1290315,0.140,-0.220
1290316,0.150,-0.185
1290317,0.140,-0.240
1290318,0.175,-0.250
1290319,0.180,-0.245
1290320,0.185,-0.235
1290321,0.180,-0.230
1290322,0.165,-0.240
1290323,0.155,-0.250
1290324,0.170,-0.240
1290325,0.180,-0.230
1290326,0.180,-0.250
1290327,0.155,-0.250
1290328,0.155,-0.255
1290329,0.155,-0.260
1290330,0.160,-0.245
1290331,0.175,-0.260
1290332,0.160,-0.260
1290333,0.160,-0.255
1290334,0.135,-0.245
1290335,0.135,-0.250
1290336,0.125,-0.250
1290337,0.130,-0.260
1290338,0.110,-0.235
1290339,0.100,-0.225
1290340,0.120,-0.220
1290341,0.090,-0.220
1290342,0.095,-0.195
1290343,0.115,-0.190
1290344,0.100,-0.220
1290345,0.095,-0.220
1290346,0.075,-0.205
1290347,0.090,-0.195
1290348,0.095,-0.210
1290349,0.080,-0.200
1290350,0.095,-0.175
1290351,0.095,-0.135
1290352,0.095,-0.110
1290353,0.085,-0.075
1290354,0.100,-0.050
1290355,0.155,-0.035
1290356,0.200,0.005
1290357,0.205,0.030
1290358,0.235,0.035
1290359,0.270,0.040
1290360,0.310,0.035
1290361,0.290,0.020
1290362,0.290,0.000
1290363,0.240,-0.010
1290364,0.180,-0.015
1290365,0.135,-0.045
1290366,0.120,-0.105
1290367,0.110,-0.140
1290368,0.100,-0.110
1290369,0.060,-0.120
1290370,0.025,-0.140
1290371,0.015,-0.160
1290372,0.035,-0.190
1290373,0.025,-0.230
1290374,0.035,-0.270
1290375,0.040,-0.275
1290376,0.030,-0.265
1290377,0.015,-0.265
1290378,0.030,-0.255
1290379,0.020,-0.250
1290380,0.020,-0.245
1290381,0.020,-0.240
1290382,0.025,-0.240
1290383,0.005,-0.255
1290384,0.015,-0.250
1290385,0.020,-0.255
1290386,0.010,-0.260
1290387,0.040,-0.275
1290388,-0.010,-0.230
1290389,-0.005,-0.235
1290390,0.010,-0.255
1290391,0.010,-0.240
1290392,0.010,-0.230
1290393,0.005,-0.175
1290394,0.000,-0.145
1290395,0.010,-0.175
1290396,0.020,-0.150
1290397,-0.010,-0.075
1290398,0.030,0.085
1290399,0.085,0.345
1290400,0.125,0.615
1290401,0.060,0.785
1290402,-0.180,0.855
1290403,-0.590,0.970
1290404,-1.245,1.120
1290405,-1.875,1.265
1290406,-2.365,1.370
1290407,-2.660,1.290
1290408,-2.725,1.250
1290409,-2.605,1.215
1290410,-2.435,1.135
1290411,-2.245,1.050
1290412,-2.135,0.950
1290413,-1.970,0.840
1290414,-1.785,0.715
1290415,-1.630,0.635
1290416,-1.515,0.580
1290417,-1.395,0.585
1290418,-1.265,0.530
1290419,-1.115,0.315
1290420,-1.000,-0.055
1290421,-0.930,-0.425
1290422,-0.825,-0.600
1290423,-0.685,-0.650
1290424,-0.580,-0.645
1290425,-0.455,-0.590
1290426,-0.310,-0.515
1290427,-0.160,-0.470
1290428,0.000,-0.420
1290429,0.125,-0.390
1290430,0.245,-0.410
1290431,0.335,-0.375
1290432,0.395,-0.375
1290433,0.425,-0.340
1290434,0.460,-0.365
1290435,0.480,-0.380
1290436,0.510,-0.355
1290437,0.515,-0.365
1290438,0.525,-0.375
1290439,0.565,-0.355
1290440,0.560,-0.320
1290441,0.585,-0.330
1290442,0.590,-0.340
1290443,0.615,-0.315
1290444,0.645,-0.290
1290445,0.640,-0.270
1290446,0.665,-0.260
1290447,0.660,-0.275
1290448,0.710,-0.280
1290449,0.710,-0.270
1290450,0.710,-0.265
1290451,0.740,-0.290
1290452,0.765,-0.275
1290453,0.790,-0.260
1290454,0.795,-0.270
1290455,0.820,-0.250
1290456,0.845,-0.230
1290457,0.885,-0.220
1290458,0.895,-0.235
1290459,0.925,-0.235
1290460,0.945,-0.270
1290461,0.960,-0.240
1290462,0.985,-0.250
1290463,1.010,-0.240
1290464,1.005,-0.255
1290465,1.020,-0.240
1290466,1.025,-0.235
1290467,1.000,-0.240
1290468,0.995,-0.225
1290469,0.995,-0.195
1290470,0.945,-0.200
1290471,0.915,-0.160
1290472,0.890,-0.160
1290473,0.855,-0.150
1290474,0.800,-0.130
1290475,0.750,-0.125
1290476,0.710,-0.095
1290477,0.660,-0.095
1290478,0.620,-0.105
1290479,0.585,-0.120
1290480,0.520,-0.125
1290481,0.475,-0.140
1290482,0.425,-0.125
1290483,0.385,-0.160
1290484,0.340,-0.145
1290485,0.290,-0.165
1290486,0.300,-0.170
1290487,0.250,-0.205
1290488,0.215,-0.200
1290489,0.205,-0.210
1290490,0.185,-0.240
1290491,0.180,-0.260
1290492,0.145,-0.230
1290493,0.160,-0.240
1290494,0.180,-0.245
1290495,0.145,-0.260
1290496,0.130,-0.270
1290497,0.125,-0.275
1290498,0.125,-0.300
1290499,0.145,-0.290
1290500,0.135,-0.290
1290501,0.140,-0.305
1290502,0.135,-0.295
1290503,0.125,-0.300
1290504,0.125,-0.285
1290505,0.115,-0.310
1290506,0.125,-0.300
1290507,0.125,-0.300
1290508,0.130,-0.305
1290509,0.160,-0.320
1290510,0.130,-0.325
1290511,0.140,-0.345
1290512,0.135,-0.330
1290513,0.155,-0.325
1290514,0.145,-0.340
1290515,0.160,-0.360
1290516,0.145,-0.355
1290517,0.140,-0.330
1290518,0.160,-0.355
1290519,0.125,-0.360
1290520,0.145,-0.340
1290521,0.150,-0.365
1290522,0.150,-0.370
1290523,0.145,-0.365
1290524,0.120,-0.360
1290525,0.130,-0.365
1290526,0.140,-0.355
1290527,0.135,-0.355
1290528,0.155,-0.355
1290529,0.140,-0.340
1290530,0.135,-0.340
1290531,0.125,-0.365
1290532,0.130,-0.345
1290533,0.145,-0.350
1290534,0.115,-0.360
1290535,0.115,-0.360
1290536,0.120,-0.340
1290537,0.100,-0.320
1290538,0.105,-0.340
1290539,0.115,-0.320
1290540,0.085,-0.305
1290541,0.090,-0.320
1290542,0.100,-0.335
1290543,0.100,-0.340
1290544,0.095,-0.330
1290545,0.110,-0.320
1290546,0.110,-0.295
1290547,0.090,-0.320
1290548,0.115,-0.305
1290549,0.105,-0.300
1290550,0.095,-0.290
1290551,0.115,-0.240
1290552,0.105,-0.195
1290553,0.095,-0.180
1290554,0.125,-0.150
1290555,0.195,-0.120
1290556,0.210,-0.120
1290557,0.245,-0.120
1290558,0.290,-0.115
1290559,0.350,-0.090
1290560,0.355,-0.105
1290561,0.330,-0.095
1290562,0.325,-0.090
1290563,0.295,-0.135
1290564,0.230,-0.160
1290565,0.185,-0.160
1290566,0.125,-0.200
1290567,0.145,-0.220
1290568,0.135,-0.220
1290569,0.085,-0.240
1290570,0.045,-0.215
1290571,0.045,-0.270
1290572,0.060,-0.315
1290573,0.060,-0.325
1290574,0.060,-0.355
1290575,0.080,-0.335
1290576,0.070,-0.355
1290577,0.070,-0.325
1290578,0.060,-0.345
1290579,0.045,-0.350
1290580,0.060,-0.345
1290581,0.050,-0.340
1290582,0.040,-0.350
1290583,0.070,-0.345
1290584,0.070,-0.340
1290585,0.050,-0.340
1290586,0.035,-0.340
1290587,0.050,-0.335
1290588,0.055,-0.335
1290589,0.060,-0.330
1290590,0.065,-0.345
1290591,0.050,-0.320
1290592,0.055,-0.335
1290593,0.055,-0.300
1290594,0.050,-0.280
1290595,0.040,-0.280
1290596,0.045,-0.250
1290597,0.040,-0.180
1290598,0.070,-0.025
1290599,0.105,0.170
1290600,0.185,0.390
1290601,0.160,0.620
1290602,-0.035,0.710
1290603,-0.380,0.725
1290604,-0.960,0.845
1290605,-1.645,0.985
1290606,-2.205,1.120
1290607,-2.600,1.075
1290608,-2.760,1.005
1290609,-2.660,0.960
1290610,-2.515,0.930
1290611,-2.335,0.835
1290612,-2.200,0.760
1290613,-2.055,0.640
1290614,-1.880,0.515
1290615,-1.695,0.430
1290616,-1.565,0.365
1290617,-1.435,0.335
1290618,-1.310,0.320
1290619,-1.205,0.255
1290620,-1.090,0.045
1290621,-0.985,-0.290
1290622,-0.875,-0.550
1290623,-0.735,-0.640
1290624,-0.605,-0.655
1290625,-0.480,-0.625
1290626,-0.355,-0.565
1290627,-0.200,-0.545
1290628,-0.080,-0.490
1290629,0.075,-0.435
1290630,0.250,-0.405
1290631,0.340,-0.380
1290632,0.435,-0.380
1290633,0.460,-0.400
1290634,0.485,-0.370
1290635,0.525,-0.395
1290636,0.535,-0.390
1290637,0.555,-0.380
1290638,0.565,-0.370
1290639,0.585,-0.370
1290640,0.630,-0.365
1290641,0.600,-0.335
1290642,0.595,-0.335
1290643,0.620,-0.315
1290644,0.635,-0.345
1290645,0.640,-0.315
1290646,0.645,-0.315
1290647,0.680,-0.275
1290648,0.675,-0.270
1290649,0.710,-0.260
1290650,0.745,-0.235
1290651,0.745,-0.240
1290652,0.765,-0.230
1290653,0.800,-0.220
1290654,0.805,-0.185
1290655,0.850,-0.155
1290656,0.865,-0.125
1290657,0.900,-0.095
1290658,0.945,-0.020
1290659,0.970,0.010
1290660,1.025,0.060
1290661,1.075,0.045
1290662,1.115,0.055
1290663,1.185,0.055
1290664,1.220,0.060
1290665,1.270,0.055
1290666,1.295,0.005
1290667,1.305,-0.060
1290668,1.295,-0.100
1290669,1.260,-0.150
1290670,1.175,-0.185
1290671,1.090,-0.180
1290672,1.000,-0.175
1290673,0.965,-0.210
1290674,0.865,-0.190
1290675,0.785,-0.225
1290676,0.760,-0.210
1290677,0.685,-0.235
1290678,0.575,-0.240
1290679,0.510,-0.250
1290680,0.485,-0.255
1290681,0.440,-0.260
1290682,0.395,-0.310
1290683,0.340,-0.315
1290684,0.275,-0.300
1290685,0.235,-0.330
1290686,0.200,-0.315
1290687,0.170,-0.330
1290688,0.140,-0.375
1290689,0.110,-0.410
1290690,0.075,-0.420
1290691,0.075,-0.430
1290692,0.055,-0.415
1290693,0.055,-0.400
1290694,0.060,-0.440
1290695,0.045,-0.430
1290696,0.010,-0.435
1290697,0.025,-0.430
1290698,0.020,-0.430
1290699,0.055,-0.440
1290700,0.020,-0.455
1290701,0.025,-0.455
1290702,0.035,-0.460
1290703,0.020,-0.490
1290704,0.000,-0.480
1290705,0.015,-0.460
1290706,0.005,-0.450
1290707,0.020,-0.475
1290708,0.005,-0.465
1290709,0.000,-0.455
1290710,0.045,-0.435
1290711,0.030,-0.390
1290712,0.030,-0.310
1290713,0.050,-0.150
1290714,0.105,-0.020
1290715,0.125,0.120
1290716,0.235,0.250
1290717,0.155,0.285
1290718,-0.080,0.260
1290719,-0.600,0.275
1290720,-1.225,0.320
1290721,-1.770,0.345
1290722,-2.215,0.345
1290723,-2.480,0.255
1290724,-2.445,0.175
1290725,-2.285,0.125
1290726,-2.125,0.090
1290727,-2.055,0.060
1290728,-1.930,-0.030
1290729,-1.765,-0.115
1290730,-1.635,-0.155
1290731,-1.545,-0.155
1290732,-1.420,-0.190
1290733,-1.300,-0.260
1290734,-1.200,-0.430
1290735,-1.110,-0.675
1290736,-0.985,-0.850
1290737,-0.880,-0.915
1290738,-0.755,-0.890
1290739,-0.620,-0.770
1290740,-0.450,-0.670
1290741,-0.275,-0.625
1290742,-0.115,-0.595
1290743,0.025,-0.560
1290744,0.160,-0.555
1290745,0.260,-0.535
1290746,0.270,-0.530
1290747,0.330,-0.520
1290748,0.355,-0.490
1290749,0.370,-0.500
1290750,0.395,-0.500
1290751,0.405,-0.480
1290752,0.445,-0.460
1290753,0.440,-0.445
1290754,0.425,-0.455
1290755,0.455,-0.430
1290756,0.485,-0.420
1290757,0.495,-0.380
1290758,0.500,-0.380
1290759,0.495,-0.400
1290760,0.510,-0.375
1290761,0.520,-0.345
1290762,0.540,-0.335
1290763,0.555,-0.325
1290764,0.580,-0.330
1290765,0.590,-0.335
1290766,0.600,-0.330
1290767,0.605,-0.335
1290768,0.625,-0.320
1290769,0.675,-0.310
1290770,0.665,-0.335
1290771,0.685,-0.325
1290772,0.720,-0.320
1290773,0.745,-0.300
1290774,0.760,-0.285
1290775,0.770,-0.310
1290776,0.815,-0.305
1290777,0.810,-0.270
1290778,0.795,-0.270
1290779,0.785,-0.295
1290780,0.800,-0.285
1290781,0.805,-0.280
1290782,0.785,-0.255
1290783,0.760,-0.230
1290784,0.720,-0.225
1290785,0.705,-0.230
1290786,0.660,-0.205
1290787,0.630,-0.240
1290788,0.570,-0.230
1290789,0.545,-0.220
1290790,0.500,-0.220
1290791,0.425,-0.240
1290792,0.390,-0.260
1290793,0.370,-0.255
1290794,0.325,-0.275
1290795,0.290,-0.295
1290796,0.255,-0.280
1290797,0.235,-0.300
1290798,0.215,-0.320
1290799,0.155,-0.310
1290800,0.160,-0.320
1290801,0.160,-0.325
1290802,0.145,-0.315
1290803,0.125,-0.330
1290804,0.100,-0.320
1290805,0.120,-0.330
1290806,0.110,-0.330
1290807,0.080,-0.320
1290808,0.130,-0.310
1290809,0.125,-0.335
1290810,0.100,-0.345
1290811,0.100,-0.320
1290812,0.085,-0.340
1290813,0.070,-0.330
1290814,0.085,-0.325
1290815,0.070,-0.340
1290816,0.070,-0.345
1290817,0.070,-0.335
1290818,0.070,-0.345
1290819,0.065,-0.345
1290820,0.065,-0.340
1290821,0.070,-0.325
1290822,0.080,-0.320
1290823,0.075,-0.310
1290824,0.085,-0.315
1290825,0.075,-0.325
1290826,0.080,-0.325
1290827,0.075,-0.335
1290828,0.085,-0.340
1290829,0.065,-0.335
1290830,0.060,-0.350
1290831,0.080,-0.320
1290832,0.070,-0.305
1290833,0.080,-0.315
1290834,0.085,-0.340
1290835,0.090,-0.340
1290836,0.075,-0.320
1290837,0.045,-0.305
1290838,0.055,-0.335
1290839,0.060,-0.330
1290840,0.065,-0.320
1290841,0.070,-0.305
1290842,0.055,-0.315
1290843,0.065,-0.300
1290844,0.050,-0.310
1290845,0.060,-0.305
1290846,0.055,-0.315
1290847,0.050,-0.315
1290848,0.045,-0.320
1290849,0.060,-0.315
1290850,0.060,-0.300
1290851,0.045,-0.315
1290852,0.045,-0.300
1290853,0.045,-0.285
1290854,0.045,-0.310
1290855,0.035,-0.305
1290856,0.040,-0.315
1290857,0.040,-0.295
1290858,0.015,-0.305
1290859,0.030,-0.315
1290860,0.030,-0.315
1290861,0.035,-0.305
1290862,0.025,-0.285
1290863,0.055,-0.305
1290864,0.035,-0.305
1290865,0.020,-0.295
1290866,0.050,-0.290
1290867,0.060,-0.285
1290868,0.040,-0.300
1290869,0.050,-0.295
1290870,0.025,-0.310
1290871,0.060,-0.300
1290872,0.045,-0.315
1290873,0.035,-0.315
1290874,0.035,-0.300
1290875,0.020,-0.280
1290876,0.030,-0.320
1290877,0.035,-0.330
1290878,0.045,-0.285
1290879,0.030,-0.295
1290880,0.030,-0.310
1290881,0.035,-0.310
1290882,0.020,-0.305
1290883,0.030,-0.300
1290884,0.020,-0.320
1290885,0.030,-0.330
1290886,0.030,-0.310
1290887,0.025,-0.315
1290888,0.015,-0.310
1290889,0.015,-0.320
1290890,0.030,-0.295
1290891,0.020,-0.295
1290892,0.015,-0.305
1290893,0.000,-0.295
1290894,0.010,-0.290
1290895,0.025,-0.300
1290896,-0.005,-0.290
1290897,0.000,-0.305
1290898,0.000,-0.300
1290899,0.015,-0.275
1290900,0.010,-0.300
1290901,0.005,-0.270
1290902,0.000,-0.240
1290903,0.010,-0.210
1290904,0.040,-0.200
1290905,0.055,-0.195
1290906,0.080,-0.150
1290907,0.135,-0.100
1290908,0.180,-0.100
1290909,0.200,-0.125
1290910,0.235,-0.115
1290911,0.220,-0.105
1290912,0.220,-0.155
1290913,0.180,-0.175
1290914,0.130,-0.155
1290915,0.070,-0.180
1290916,0.065,-0.220
1290917,0.055,-0.240
1290918,0.025,-0.250
1290919,-0.005,-0.265
1290920,-0.010,-0.295
1290921,-0.030,-0.330
1290922,-0.025,-0.340
1290923,-0.010,-0.345
1290924,-0.025,-0.345
1290925,-0.030,-0.350
1290926,-0.020,-0.350
1290927,-0.025,-0.355
1290928,-0.025,-0.340
1290929,-0.030,-0.370
1290930,-0.030,-0.360
1290931,-0.015,-0.325
1290932,-0.020,-0.345
1290933,-0.020,-0.350
1290934,-0.025,-0.365
1290935,-0.025,-0.340
1290936,-0.035,-0.340
1290937,-0.020,-0.355
1290938,-0.020,-0.360
1290939,-0.020,-0.315
1290940,-0.020,-0.315
1290941,-0.005,-0.335
1290942,-0.020,-0.300
1290943,0.010,-0.220
1290944,0.005,-0.090
1290945,0.060,0.075
1290946,0.130,0.355
1290947,0.140,0.610
1290948,-0.080,0.715
1290949,-0.465,0.755
1290950,-1.140,0.850
1290951,-1.860,0.990
1290952,-2.435,1.015
1290953,-2.775,0.990
1290954,-2.850,0.935
1290955,-2.750,0.885
1290956,-2.555,0.800
1290957,-2.360,0.730
1290958,-2.240,0.630
1290959,-2.050,0.525
1290960,-1.830,0.425
1290961,-1.695,0.365
1290962,-1.555,0.340
1290963,-1.385,0.325
1290964,-1.255,0.210
1290965,-1.160,-0.040
1290966,-1.030,-0.395
1290967,-0.930,-0.610
1290968,-0.780,-0.705
1290969,-0.640,-0.715
1290970,-0.505,-0.625
1290971,-0.375,-0.555
1290972,-0.215,-0.510
1290973,-0.060,-0.465
1290974,0.115,-0.450
1290975,0.270,-0.425
1290976,0.375,-0.415
1290977,0.405,-0.400
1290978,0.455,-0.405
1290979,0.475,-0.405
1290980,0.505,-0.385
1290981,0.500,-0.375
1290982,0.550,-0.380
1290983,0.570,-0.370
1290984,0.570,-0.375
1290985,0.595,-0.350
1290986,0.595,-0.355
1290987,0.605,-0.340
1290988,0.635,-0.340
1290989,0.640,-0.300
1290990,0.675,-0.305
1290991,0.705,-0.325
1290992,0.700,-0.300
1290993,0.715,-0.285
1290994,0.750,-0.280
1290995,0.750,-0.285
1290996,0.775,-0.265
1290997,0.800,-0.275
1290998,0.815,-0.285
1290999,0.845,-0.280
1291000,0.875,-0.240
1291001,0.890,-0.225
1291002,0.905,-0.250
1291003,0.945,-0.225
1291004,0.965,-0.235
1291005,0.990,-0.235
1291006,1.015,-0.215
1291007,1.030,-0.190
1291008,1.065,-0.205
1291009,1.075,-0.215
1291010,1.065,-0.190
1291011,1.045,-0.175
1291012,1.045,-0.165
1291013,1.045,-0.165
1291014,1.020,-0.135
1291015,0.990,-0.145
1291016,0.965,-0.155
1291017,0.935,-0.140
1291018,0.890,-0.125
1291019,0.835,-0.125
1291020,0.800,-0.140
1291021,0.755,-0.120
1291022,0.725,-0.100
1291023,0.660,-0.105
1291024,0.615,-0.095
1291025,0.580,-0.120
1291026,0.530,-0.110
1291027,0.485,-0.125
1291028,0.445,-0.155
1291029,0.385,-0.175
1291030,0.355,-0.185
1291031,0.330,-0.210
1291032,0.295,-0.240
1291033,0.260,-0.240
1291034,0.250,-0.235
1291035,0.215,-0.240
1291036,0.230,-0.260
1291037,0.225,-0.265
1291038,0.210,-0.255
1291039,0.185,-0.255
1291040,0.185,-0.265
1291041,0.185,-0.320
1291042,0.205,-0.285
1291043,0.185,-0.305
1291044,0.200,-0.305
1291045,0.205,-0.300
1291046,0.170,-0.310
1291047,0.190,-0.300
1291048,0.205,-0.330
1291049,0.180,-0.325
1291050,0.180,-0.315
1291051,0.215,-0.315
1291052,0.210,-0.340
1291053,0.220,-0.350
1291054,0.220,-0.345
1291055,0.210,-0.315
1291056,0.210,-0.360
1291057,0.225,-0.385
1291058,0.230,-0.380
1291059,0.230,-0.370
1291060,0.230,-0.355
1291061,0.225,-0.385
1291062,0.230,-0.360
1291063,0.230,-0.370
1291064,0.230,-0.390
1291065,0.220,-0.390
1291066,0.215,-0.400
1291067,0.205,-0.400
1291068,0.180,-0.400
1291069,0.185,-0.395
1291070,0.200,-0.375
1291071,0.180,-0.380
1291072,0.190,-0.405
1291073,0.160,-0.415
1291074,0.175,-0.375
1291075,0.175,-0.390
1291076,0.195,-0.365
1291077,0.180,-0.370
1291078,0.175,-0.350
1291079,0.175,-0.340
1291080,0.160,-0.380
1291081,0.140,-0.360
1291082,0.130,-0.320
1291083,0.120,-0.340
1291084,0.125,-0.355
1291085,0.130,-0.345
1291086,0.160,-0.360
1291087,0.140,-0.335
1291088,0.140,-0.340
1291089,0.110,-0.345
1291090,0.125,-0.305
1291091,0.105,-0.300
1291092,0.110,-0.315
1291093,0.110,-0.310
1291094,0.125,-0.295
1291095,0.105,-0.305
1291096,0.100,-0.310
1291097,0.105,-0.300
1291098,0.125,-0.305
1291099,0.125,-0.295
1291100,0.125,-0.295
1291101,0.100,-0.300
1291102,0.105,-0.315
1291103,0.125,-0.285
1291104,0.080,-0.295
1291105,0.080,-0.310
1291106,0.090,-0.315
1291107,0.105,-0.300
1291108,0.095,-0.305
1291109,0.105,-0.300
1291110,0.115,-0.305
1291111,0.105,-0.295
1291112,0.110,-0.240
1291113,0.105,-0.200
1291114,0.100,-0.210
1291115,0.120,-0.185
1291116,0.170,-0.150
1291117,0.190,-0.145
1291118,0.225,-0.100
1291119,0.265,-0.095
1291120,0.305,-0.085
1291121,0.315,-0.100
1291122,0.345,-0.120
1291123,0.330,-0.135
1291124,0.275,-0.155
1291125,0.225,-0.170
1291126,0.180,-0.190
1291127,0.155,-0.225
1291128,0.150,-0.210
1291129,0.115,-0.235
1291130,0.085,-0.285
1291131,0.035,-0.320
1291132,0.085,-0.355
1291133,0.065,-0.355
1291134,0.085,-0.370
1291135,0.090,-0.365
1291136,0.075,-0.385
1291137,0.045,-0.375
1291138,0.060,-0.385
1291139,0.050,-0.360
1291140,0.050,-0.370
1291141,0.040,-0.355
1291142,0.035,-0.375
1291143,0.050,-0.385
1291144,0.045,-0.380
1291145,0.065,-0.345
1291146,0.065,-0.375
1291147,0.035,-0.390
1291148,0.055,-0.370
1291149,0.025,-0.340
1291150,0.040,-0.355
1291151,0.040,-0.355
1291152,0.040,-0.345
1291153,0.055,-0.340
1291154,0.065,-0.280
1291155,0.050,-0.200
1291156,0.075,-0.045
1291157,0.155,0.210
1291158,0.195,0.515
1291159,0.065,0.715
1291160,-0.200,0.755
1291161,-0.655,0.795
1291162,-1.370,0.945
1291163,-2.020,1.060
1291164,-2.500,1.055
1291165,-2.700,0.975
1291166,-2.640,0.910
1291167,-2.455,0.800
1291168,-2.270,0.720
1291169,-2.120,0.620
1291170,-1.970,0.470
1291171,-1.760,0.345
1291172,-1.620,0.270
1291173,-1.495,0.210
1291174,-1.360,0.200
1291175,-1.215,0.110
1291176,-1.125,-0.120
1291177,-1.010,-0.440
1291178,-0.895,-0.670
1291179,-0.765,-0.765
1291180,-0.640,-0.770
1291181,-0.500,-0.710
1291182,-0.355,-0.620
1291183,-0.205,-0.570
1291184,-0.055,-0.535
1291185,0.105,-0.520
1291186,0.260,-0.495
1291187,0.355,-0.480
1291188,0.405,-0.470
1291189,0.420,-0.495
1291190,0.475,-0.450
1291191,0.525,-0.440
1291192,0.515,-0.445
1291193,0.515,-0.420
1291194,0.540,-0.380
1291195,0.555,-0.385
1291196,0.590,-0.390
1291197,0.590,-0.365
1291198,0.580,-0.360
1291199,0.580,-0.375
1291200,0.605,-0.360
1291201,0.625,-0.360
1291202,0.635,-0.340
1291203,0.640,-0.335
1291204,0.650,-0.310
1291205,0.650,-0.315
1291206,0.680,-0.305
1291207,0.705,-0.315
1291208,0.710,-0.315
1291209,0.725,-0.310
1291210,0.740,-0.280
1291211,0.760,-0.270
1291212,0.800,-0.290
1291213,0.810,-0.260
1291214,0.820,-0.240
1291215,0.850,-0.260
1291216,0.865,-0.240
1291217,0.875,-0.245
1291218,0.910,-0.190
1291219,0.905,-0.225
1291220,0.900,-0.195
1291221,0.905,-0.200
1291222,0.900,-0.200
1291223,0.890,-0.180
1291224,0.870,-0.150
1291225,0.890,-0.125
1291226,0.855,-0.130
1291227,0.815,-0.120
1291228,0.775,-0.140
1291229,0.755,-0.130
1291230,0.720,-0.110
1291231,0.670,-0.120
1291232,0.625,-0.155
1291233,0.565,-0.180
1291234,0.505,-0.160
1291235,0.480,-0.155
1291236,0.420,-0.205
1291237,0.365,-0.240
1291238,0.340,-0.250
1291239,0.285,-0.260
1291240,0.280,-0.300
1291241,0.265,-0.315
1291242,0.210,-0.320
1291243,0.195,-0.315
1291244,0.180,-0.330
1291245,0.165,-0.350
1291246,0.135,-0.370
1291247,0.125,-0.360
1291248,0.115,-0.370
1291249,0.095,-0.410
1291250,0.090,-0.420
1291251,0.095,-0.400
1291252,0.100,-0.390
1291253,0.095,-0.425
1291254,0.095,-0.445
1291255,0.095,-0.440
1291256,0.105,-0.425
1291257,0.115,-0.435
1291258,0.115,-0.450
1291259,0.130,-0.430
1291260,0.115,-0.435
1291261,0.130,-0.475
1291262,0.130,-0.475
1291263,0.100,-0.460
1291264,0.110,-0.470
1291265,0.115,-0.475
1291266,0.125,-0.480
1291267,0.130,-0.485
1291268,0.145,-0.485
1291269,0.135,-0.500
1291270,0.140,-0.490
1291271,0.155,-0.515
1291272,0.135,-0.505
1291273,0.110,-0.500
1291274,0.095,-0.505
1291275,0.080,-0.510
1291276,0.120,-0.500
1291277,0.100,-0.480
1291278,0.105,-0.510
1291279,0.130,-0.525
1291280,0.095,-0.500
1291281,0.065,-0.495
1291282,0.070,-0.500
1291283,0.070,-0.495
1291284,0.060,-0.520
1291285,0.040,-0.505
1291286,0.045,-0.485
1291287,0.060,-0.475
1291288,0.045,-0.500
1291289,0.050,-0.485
1291290,0.050,-0.465
1291291,0.040,-0.450
1291292,0.040,-0.445
1291293,0.035,-0.455
1291294,0.045,-0.415
1291295,0.055,-0.445
1291296,0.030,-0.460
1291297,0.035,-0.445
1291298,0.040,-0.425
1291299,0.030,-0.440
1291300,0.015,-0.435
1291301,0.005,-0.435
1291302,0.025,-0.430
1291303,0.030,-0.430
1291304,0.015,-0.425
1291305,0.020,-0.400
1291306,0.010,-0.425
1291307,0.020,-0.450
1291308,0.010,-0.420
1291309,0.005,-0.395
1291310,0.020,-0.400
1291311,0.000,-0.380
1291312,0.000,-0.415
1291313,0.010,-0.430
1291314,0.005,-0.400
1291315,0.000,-0.400
1291316,0.000,-0.370
1291317,0.000,-0.345
1291318,0.000,-0.330
1291319,0.035,-0.300
1291320,0.050,-0.280
1291321,0.075,-0.265
1291322,0.115,-0.240
1291323,0.155,-0.230
1291324,0.185,-0.215
1291325,0.210,-0.235
1291326,0.210,-0.235
1291327,0.205,-0.240
1291328,0.180,-0.270
1291329,0.140,-0.270
1291330,0.110,-0.275
1291331,0.070,-0.305
1291332,0.065,-0.355
1291333,0.015,-0.390
1291334,-0.020,-0.400
1291335,-0.060,-0.390
1291336,-0.035,-0.425
1291337,-0.060,-0.475
1291338,-0.035,-0.470
1291339,-0.010,-0.455
1291340,-0.020,-0.455
1291341,-0.035,-0.480
1291342,-0.035,-0.455
1291343,-0.045,-0.435
1291344,-0.035,-0.475
1291345,-0.080,-0.450
1291346,-0.065,-0.455
1291347,-0.060,-0.445
1291348,-0.040,-0.470
1291349,-0.045,-0.455
1291350,-0.035,-0.445
1291351,-0.055,-0.430
1291352,-0.060,-0.410
1291353,-0.060,-0.445
1291354,-0.080,-0.445
1291355,-0.070,-0.445
1291356,-0.075,-0.445
1291357,-0.075,-0.410
1291358,-0.075,-0.400
1291359,-0.070,-0.380
1291360,-0.075,-0.300
1291361,-0.050,-0.145
1291362,-0.030,0.075
1291363,0.045,0.455
1291364,0.050,0.820
1291365,-0.115,1.015
1291366,-0.400,1.070
1291367,-0.820,1.090
1291368,-1.420,1.205
1291369,-1.935,1.325
1291370,-2.310,1.305
1291371,-2.525,1.200
1291372,-2.520,1.135
1291373,-2.390,1.050
1291374,-2.185,0.885
1291375,-2.025,0.760
1291376,-1.930,0.595
1291377,-1.790,0.455
1291378,-1.630,0.335
1291379,-1.500,0.275
1291380,-1.370,0.265
1291381,-1.285,0.255
1291382,-1.155,0.170
1291383,-1.035,-0.140
1291384,-0.955,-0.510
1291385,-0.875,-0.685
1291386,-0.745,-0.790
1291387,-0.635,-0.800
1291388,-0.520,-0.740
1291389,-0.400,-0.680
1291390,-0.265,-0.625
1291391,-0.160,-0.605
1291392,-0.045,-0.550
1291393,0.085,-0.530
1291394,0.195,-0.520
1291395,0.240,-0.510
1291396,0.295,-0.490
1291397,0.325,-0.500
1291398,0.330,-0.480
1291399,0.335,-0.485
1291400,0.370,-0.470
1291401,0.370,-0.445
1291402,0.370,-0.440
1291403,0.390,-0.450
1291404,0.405,-0.440
1291405,0.435,-0.455
1291406,0.430,-0.440
1291407,0.430,-0.410
1291408,0.455,-0.415
1291409,0.450,-0.410
1291410,0.485,-0.405
1291411,0.500,-0.405
1291412,0.500,-0.390
1291413,0.530,-0.375
1291414,0.540,-0.365
1291415,0.545,-0.365
1291416,0.585,-0.360
1291417,0.600,-0.365
1291418,0.615,-0.370
1291419,0.615,-0.355
1291420,0.660,-0.365
1291421,0.660,-0.360
1291422,0.690,-0.355
1291423,0.740,-0.360
1291424,0.705,-0.375
1291425,0.735,-0.350
1291426,0.745,-0.335
1291427,0.755,-0.335
1291428,0.760,-0.315
1291429,0.760,-0.270
1291430,0.765,-0.280
1291431,0.785,-0.275
1291432,0.765,-0.235
1291433,0.755,-0.210
1291434,0.750,-0.195
1291435,0.720,-0.160
1291436,0.675,-0.155
1291437,0.645,-0.145
1291438,0.630,-0.115
1291439,0.585,-0.105
1291440,0.550,-0.090
1291441,0.480,-0.105
1291442,0.440,-0.135
1291443,0.375,-0.140
1291444,0.350,-0.160
1291445,0.295,-0.165
1291446,0.290,-0.200
1291447,0.245,-0.215
1291448,0.225,-0.240
1291449,0.195,-0.240
1291450,0.150,-0.230
1291451,0.135,-0.245
1291452,0.120,-0.265
1291453,0.110,-0.255
1291454,0.105,-0.265
1291455,0.080,-0.270
1291456,0.070,-0.290
1291457,0.075,-0.270
1291458,0.085,-0.285
1291459,0.060,-0.300
1291460,0.065,-0.300
1291461,0.030,-0.300
1291462,0.050,-0.300
1291463,0.050,-0.300
1291464,0.045,-0.270
1291465,0.075,-0.305
1291466,0.070,-0.280
1291467,0.085,-0.320
1291468,0.075,-0.310
1291469,0.045,-0.325
1291470,0.070,-0.305
1291471,0.060,-0.305
1291472,0.070,-0.325
1291473,0.060,-0.360
1291474,0.070,-0.345
1291475,0.075,-0.345
1291476,0.060,-0.335
1291477,0.070,-0.350
1291478,0.095,-0.355
1291479,0.095,-0.345
1291480,0.100,-0.350
1291481,0.095,-0.350
1291482,0.095,-0.365
1291483,0.055,-0.335
1291484,0.070,-0.335
1291485,0.085,-0.355
1291486,0.075,-0.350
1291487,0.065,-0.350
1291488,0.090,-0.320
1291489,0.055,-0.335
1291490,0.075,-0.330
1291491,0.060,-0.345
1291492,0.065,-0.325
1291493,0.065,-0.330
1291494,0.060,-0.320
1291495,0.040,-0.315
1291496,0.055,-0.310
1291497,0.025,-0.315
1291498,0.060,-0.315
1291499,0.050,-0.315
1291500,0.045,-0.295
1291501,0.030,-0.265
1291502,0.015,-0.285
1291503,0.015,-0.285
1291504,0.025,-0.270
1291505,0.025,-0.270
1291506,0.020,-0.265
1291507,0.025,-0.260
1291508,0.035,-0.265
1291509,0.030,-0.260
1291510,0.030,-0.240
1291511,0.035,-0.245
1291512,0.025,-0.250
1291513,0.015,-0.250
1291514,0.025,-0.230
1291515,0.035,-0.255
1291516,0.040,-0.220
1291517,0.035,-0.230
1291518,0.020,-0.220
1291519,0.025,-0.190
1291520,0.020,-0.190
1291521,0.030,-0.125
1291522,0.035,-0.115
1291523,0.050,-0.105
1291524,0.085,-0.085
1291525,0.115,-0.040
1291526,0.145,0.010
1291527,0.160,0.020
1291528,0.210,0.015
1291529,0.215,0.010
1291530,0.250,0.005
1291531,0.245,-0.005
1291532,0.230,-0.035
1291533,0.150,-0.035
1291534,0.095,-0.025
1291535,0.070,-0.065
1291536,0.075,-0.080
1291537,0.060,-0.105
1291538,0.060,-0.135
1291539,0.005,-0.155
1291540,-0.015,-0.155
1291541,-0.030,-0.210
1291542,-0.025,-0.235
1291543,-0.010,-0.240
1291544,0.000,-0.225
1291545,0.000,-0.225
1291546,-0.005,-0.255
1291547,-0.010,-0.250
1291548,-0.005,-0.240
1291549,-0.040,-0.220
1291550,-0.035,-0.225
1291551,-0.035,-0.240
1291552,-0.020,-0.210
1291553,-0.015,-0.210
1291554,-0.040,-0.220
1291555,-0.040,-0.225
1291556,-0.015,-0.225
1291557,-0.010,-0.200
1291558,-0.035,-0.200
1291559,0.005,-0.195
1291560,-0.010,-0.180
1291561,0.005,-0.190
1291562,0.005,-0.165
1291563,0.010,-0.160
1291564,-0.005,-0.140
1291565,-0.005,-0.050
1291566,0.010,0.035
1291567,0.030,0.200
1291568,0.095,0.465
1291569,0.155,0.840
1291570,0.070,1.070
1291571,-0.160,1.180
1291572,-0.555,1.250
1291573,-1.080,1.400
1291574,-1.710,1.580
1291575,-2.140,1.640
1291576,-2.445,1.580
1291577,-2.500,1.515
1291578,-2.350,1.455
1291579,-2.185,1.340
1291580,-2.010,1.235
1291581,-1.900,1.145
1291582,-1.765,1.010
1291583,-1.610,0.895
1291584,-1.460,0.830
1291585,-1.340,0.815
1291586,-1.230,0.805
1291587,-1.135,0.740
1291588,-1.030,0.550
1291589,-0.925,0.190
1291590,-0.845,-0.190
1291591,-0.745,-0.420
1291592,-0.610,-0.520
1291593,-0.515,-0.545
1291594,-0.420,-0.505
1291595,-0.305,-0.430
1291596,-0.185,-0.375
1291597,-0.030,-0.300
1291598,0.110,-0.285
1291599,0.245,-0.240
1291600,0.325,-0.255
1291601,0.375,-0.260
1291602,0.445,-0.250
1291603,0.460,-0.250
1291604,0.485,-0.235
1291605,0.500,-0.235
1291606,0.495,-0.225
1291607,0.525,-0.240
1291608,0.520,-0.240
1291609,0.525,-0.235
1291610,0.555,-0.215
1291611,0.585,-0.215
1291612,0.565,-0.235
1291613,0.615,-0.220
1291614,0.585,-0.200
1291615,0.620,-0.210
1291616,0.640,-0.225
1291617,0.625,-0.230
1291618,0.660,-0.210
1291619,0.675,-0.190
1291620,0.680,-0.200
1291621,0.705,-0.220
1291622,0.730,-0.200
1291623,0.745,-0.205
1291624,0.770,-0.235
1291625,0.770,-0.235
1291626,0.785,-0.225
1291627,0.810,-0.195
1291628,0.820,-0.215
1291629,0.865,-0.220
1291630,0.855,-0.215
1291631,0.885,-0.235
1291632,0.895,-0.220
1291633,0.905,-0.235
1291634,0.920,-0.230
1291635,0.920,-0.210
1291636,0.915,-0.195
1291637,0.950,-0.195
1291638,0.920,-0.170
1291639,0.875,-0.150
1291640,0.875,-0.135
1291641,0.855,-0.110
1291642,0.825,-0.100
1291643,0.785,-0.080
1291644,0.750,-0.035
1291645,0.710,-0.015
1291646,0.675,-0.015
1291647,0.640,0.000
1291648,0.585,0.010
1291649,0.560,0.025
1291650,0.490,0.050
1291651,0.460,0.015
1291652,0.400,-0.005
1291653,0.370,0.005
1291654,0.315,0.015
1291655,0.300,-0.020
1291656,0.270,-0.015
1291657,0.235,-0.025
1291658,0.205,-0.050
1291659,0.210,-0.050
1291660,0.160,-0.080
1291661,0.130,-0.090
1291662,0.140,-0.105
1291663,0.135,-0.110
1291664,0.125,-0.125
1291665,0.115,-0.105
1291666,0.115,-0.095
1291667,0.120,-0.090
1291668,0.125,-0.120
1291669,0.095,-0.125
1291670,0.105,-0.135
1291671,0.085,-0.125
1291672,0.110,-0.140
1291673,0.105,-0.145
1291674,0.100,-0.140
1291675,0.100,-0.160
1291676,0.075,-0.165
1291677,0.080,-0.155
1291678,0.095,-0.170
1291679,0.115,-0.155
1291680,0.080,-0.200
1291681,0.100,-0.195
1291682,0.100,-0.195
1291683,0.130,-0.170
1291684,0.105,-0.190
1291685,0.110,-0.205
1291686,0.095,-0.210
1291687,0.095,-0.200
1291688,0.115,-0.210
1291689,0.100,-0.215
1291690,0.095,-0.225
1291691,0.105,-0.240
1291692,0.095,-0.205
1291693,0.100,-0.230
1291694,0.085,-0.235
1291695,0.080,-0.215
1291696,0.070,-0.210
1291697,0.060,-0.200
1291698,0.065,-0.230
1291699,0.075,-0.235
1291700,0.080,-0.235
1291701,0.045,-0.240
1291702,0.060,-0.210
1291703,0.060,-0.210
1291704,0.040,-0.190
1291705,0.035,-0.180
1291706,0.050,-0.190
1291707,0.050,-0.210
1291708,0.045,-0.200
1291709,0.030,-0.185
1291710,0.045,-0.185
1291711,0.035,-0.200
1291712,0.000,-0.205
1291713,0.005,-0.180
1291714,0.010,-0.185
1291715,0.010,-0.210
1291716,0.020,-0.185
1291717,0.000,-0.155
1291718,0.020,-0.170
1291719,0.005,-0.150
1291720,0.005,-0.125
1291721,0.025,-0.065
1291722,0.035,-0.060
1291723,0.065,-0.035
1291724,0.070,-0.055
1291725,0.105,0.000
1291726,0.115,0.010
1291727,0.135,0.030
1291728,0.165,-0.005
1291729,0.165,0.000
1291730,0.180,0.000
1291731,0.155,-0.045
1291732,0.105,-0.070
1291733,0.075,-0.060
1291734,0.025,-0.080
1291735,0.010,-0.130
1291736,0.005,-0.170
1291737,-0.035,-0.180
1291738,-0.075,-0.190
1291739,-0.080,-0.205
1291740,-0.115,-0.250
1291741,-0.095,-0.320
1291742,-0.085,-0.340
1291743,-0.085,-0.325
1291744,-0.110,-0.335
1291745,-0.120,-0.315
1291746,-0.125,-0.335
1291747,-0.115,-0.355
1291748,-0.115,-0.360
1291749,-0.125,-0.350
1291750,-0.115,-0.370
1291751,-0.125,-0.365
1291752,-0.125,-0.325
1291753,-0.155,-0.345
1291754,-0.140,-0.360
1291755,-0.135,-0.330
1291756,-0.155,-0.325
1291757,-0.155,-0.370
1291758,-0.175,-0.375
1291759,-0.170,-0.350
1291760,-0.170,-0.315
1291761,-0.190,-0.340
1291762,-0.190,-0.325
1291763,-0.140,-0.355
1291764,-0.150,-0.295
1291765,-0.160,-0.230
1291766,-0.160,-0.085
1291767,-0.115,0.125
1291768,-0.035,0.415
1291769,-0.005,0.685
1291770,-0.175,0.820
1291771,-0.505,0.910
1291772,-1.055,1.065
1291773,-1.755,1.265
1291774,-2.295,1.400
1291775,-2.670,1.400
1291776,-2.835,1.365
1291777,-2.740,1.335
1291778,-2.605,1.275
1291779,-2.435,1.180
1291780,-2.285,1.075
1291781,-2.205,0.955
1291782,-2.050,0.810
1291783,-1.850,0.675
1291784,-1.775,0.625
1291785,-1.690,0.585
1291786,-1.525,0.550
1291787,-1.400,0.385
1291788,-1.275,0.045
1291789,-1.225,-0.320
1291790,-1.125,-0.570
1291791,-1.010,-0.690
1291792,-0.900,-0.730
1291793,-0.765,-0.700
1291794,-0.615,-0.630
1291795,-0.490,-0.590
1291796,-0.355,-0.545
1291797,-0.210,-0.520
1291798,-0.045,-0.500
1291799,0.010,-0.465
1291800,0.065,-0.460
1291801,0.085,-0.490
1291802,0.125,-0.445
1291803,0.140,-0.440
1291804,0.145,-0.440
1291805,0.160,-0.445
1291806,0.195,-0.475
1291807,0.215,-0.435
1291808,0.220,-0.405
1291809,0.220,-0.415
1291810,0.225,-0.430
1291811,0.255,-0.385
1291812,0.250,-0.400
1291813,0.260,-0.380
1291814,0.265,-0.385
1291815,0.280,-0.385
1291816,0.300,-0.395
1291817,0.335,-0.380
1291818,0.335,-0.340
1291819,0.345,-0.360
1291820,0.380,-0.380
1291821,0.405,-0.360
1291822,0.420,-0.350
1291823,0.460,-0.350
1291824,0.470,-0.345
1291825,0.500,-0.375
1291826,0.495,-0.345
1291827,0.525,-0.315
1291828,0.535,-0.315
1291829,0.525,-0.330
1291830,0.580,-0.305
1291831,0.585,-0.305
1291832,0.620,-0.320
1291833,0.595,-0.300
1291834,0.565,-0.255
1291835,0.530,-0.260
1291836,0.530,-0.250
1291837,0.505,-0.235
1291838,0.450,-0.210
1291839,0.415,-0.170
1291840,0.385,-0.140
1291841,0.315,-0.155
1291842,0.275,-0.155
1291843,0.200,-0.110
1291844,0.160,-0.115
1291845,0.090,-0.130
1291846,0.055,-0.125
1291847,-0.020,-0.115
1291848,-0.085,-0.115
1291849,-0.125,-0.165
1291850,-0.175,-0.145
1291851,-0.185,-0.160
1291852,-0.225,-0.170
1291853,-0.265,-0.205
1291854,-0.270,-0.195
1291855,-0.315,-0.195
1291856,-0.295,-0.220
1291857,-0.305,-0.225
1291858,-0.345,-0.245
1291859,-0.345,-0.245
1291860,-0.380,-0.230
1291861,-0.365,-0.240
1291862,-0.365,-0.290
1291863,-0.360,-0.275
1291864,-0.360,-0.270
1291865,-0.385,-0.285
1291866,-0.390,-0.300
1291867,-0.385,-0.290
1291868,-0.385,-0.290
1291869,-0.405,-0.290
1291870,-0.380,-0.280
1291871,-0.375,-0.310
1291872,-0.390,-0.300
1291873,-0.400,-0.320
1291874,-0.395,-0.350
1291875,-0.390,-0.315
1291876,-0.400,-0.310
1291877,-0.390,-0.320
1291878,-0.370,-0.365
1291879,-0.365,-0.370
1291880,-0.360,-0.330
1291881,-0.365,-0.310
1291882,-0.390,-0.350
1291883,-0.405,-0.370
1291884,-0.375,-0.350
1291885,-0.395,-0.340
1291886,-0.390,-0.350
1291887,-0.410,-0.370
1291888,-0.395,-0.375
1291889,-0.420,-0.365
1291890,-0.410,-0.350
1291891,-0.420,-0.345
1291892,-0.425,-0.360
1291893,-0.430,-0.360
1291894,-0.425,-0.350
1291895,-0.445,-0.375
1291896,-0.435,-0.375
1291897,-0.450,-0.350
1291898,-0.480,-0.335
1291899,-0.455,-0.360
1291900,-0.465,-0.380
1291901,-0.460,-0.370
1291902,-0.470,-0.320
1291903,-0.505,-0.320
1291904,-0.490,-0.345
1291905,-0.480,-0.325
1291906,-0.475,-0.315
1291907,-0.495,-0.310
1291908,-0.480,-0.345
1291909,-0.485,-0.325
1291910,-0.490,-0.305
1291911,-0.485,-0.320
1291912,-0.500,-0.325
1291913,-0.495,-0.325
1291914,-0.480,-0.315
1291915,-0.500,-0.345
1291916,-0.500,-0.305
1291917,-0.490,-0.305
1291918,-0.500,-0.275
1291919,-0.515,-0.230
1291920,-0.480,-0.195
1291921,-0.475,-0.175
1291922,-0.465,-0.160
1291923,-0.420,-0.150
1291924,-0.380,-0.100
1291925,-0.375,-0.080
1291926,-0.320,-0.070
1291927,-0.275,-0.080
1291928,-0.285,-0.110
1291929,-0.290,-0.140
1291930,-0.325,-0.145
1291931,-0.405,-0.130
1291932,-0.455,-0.180
1291933,-0.460,-0.200
1291934,-0.465,-0.215
1291935,-0.485,-0.230
1291936,-0.525,-0.265
1291937,-0.525,-0.300
1291938,-0.545,-0.360
1291939,-0.550,-0.400
1291940,-0.520,-0.385
1291941,-0.565,-0.365
1291942,-0.565,-0.395
1291943,-0.545,-0.400
1291944,-0.555,-0.415
1291945,-0.560,-0.390
1291946,-0.550,-0.385
1291947,-0.575,-0.370
1291948,-0.580,-0.375
1291949,-0.560,-0.395
1291950,-0.555,-0.390
1291951,-0.555,-0.385
1291952,-0.550,-0.380
1291953,-0.555,-0.360
1291954,-0.565,-0.360
1291955,-0.535,-0.375
1291956,-0.560,-0.375
1291957,-0.575,-0.345
1291958,-0.555,-0.340
1291959,-0.530,-0.350
1291960,-0.545,-0.350
1291961,-0.580,-0.270
1291962,-0.550,-0.135
1291963,-0.530,0.025
1291964,-0.480,0.270
1291965,-0.425,0.575
1291966,-0.540,0.705
1291967,-0.825,0.780
1291968,-1.300,0.890
1291969,-2.020,1.050
1291970,-2.580,1.195
1291971,-2.915,1.215
1291972,-3.080,1.175
1291973,-3.045,1.130
1291974,-2.950,1.050
1291975,-2.765,0.945
1291976,-2.665,0.865
1291977,-2.580,0.705
1291978,-2.405,0.570
1291979,-2.220,0.465
1291980,-2.115,0.435
1291981,-2.005,0.400
1291982,-1.870,0.315
1291983,-1.735,0.085
1291984,-1.610,-0.315
1291985,-1.490,-0.610
1291986,-1.365,-0.740
1291987,-1.220,-0.770
1291988,-1.115,-0.755
1291989,-0.980,-0.695
1291990,-0.845,-0.630
1291991,-0.660,-0.540
1291992,-0.545,-0.520
1291993,-0.415,-0.505
1291994,-0.295,-0.505
1291995,-0.240,-0.505
1291996,-0.175,-0.480
1291997,-0.155,-0.465
1291998,-0.135,-0.480
1291999,-0.120,-0.455
1292000,-0.105,-0.480
1292001,-0.120,-0.470
1292002,-0.095,-0.445
1292003,-0.060,-0.430
1292004,-0.050,-0.440
1292005,-0.045,-0.425
1292006,-0.035,-0.435
1292007,-0.020,-0.400
1292008,-0.010,-0.400
1292009,0.020,-0.410
1292010,0.035,-0.425
1292011,0.075,-0.370
1292012,0.090,-0.380
1292013,0.110,-0.385
1292014,0.135,-0.380
1292015,0.145,-0.370
1292016,0.185,-0.365
1292017,0.200,-0.360
1292018,0.230,-0.375
1292019,0.270,-0.350
1292020,0.300,-0.345
1292021,0.315,-0.350
1292022,0.330,-0.355
1292023,0.350,-0.320
1292024,0.390,-0.335
1292025,0.430,-0.335
1292026,0.445,-0.335
1292027,0.430,-0.320
1292028,0.445,-0.280
1292029,0.435,-0.280
1292030,0.395,-0.270
1292031,0.425,-0.235
1292032,0.380,-0.225
1292033,0.330,-0.210
1292034,0.285,-0.220
1292035,0.240,-0.190
1292036,0.205,-0.185
1292037,0.135,-0.150
1292038,0.075,-0.185
1292039,0.030,-0.160
1292040,-0.020,-0.150
1292041,-0.090,-0.185
1292042,-0.120,-0.200
1292043,-0.155,-0.215
1292044,-0.190,-0.240
1292045,-0.255,-0.245
1292046,-0.290,-0.260
1292047,-0.315,-0.270
1292048,-0.355,-0.290
1292049,-0.365,-0.320
1292050,-0.360,-0.315
1292051,-0.410,-0.325
1292052,-0.420,-0.340
1292053,-0.415,-0.320
1292054,-0.415,-0.340
1292055,-0.445,-0.345
1292056,-0.420,-0.320
1292057,-0.440,-0.340
1292058,-0.445,-0.340
1292059,-0.420,-0.360
1292060,-0.435,-0.370
1292061,-0.415,-0.375
1292062,-0.420,-0.385
1292063,-0.410,-0.360
1292064,-0.410,-0.380
1292065,-0.420,-0.385
1292066,-0.420,-0.405
1292067,-0.415,-0.380
1292068,-0.415,-0.385
1292069,-0.395,-0.395
1292070,-0.380,-0.415
1292071,-0.380,-0.425
1292072,-0.375,-0.440
1292073,-0.370,-0.425
1292074,-0.385,-0.425
1292075,-0.380,-0.440
1292076,-0.365,-0.430
1292077,-0.365,-0.450
1292078,-0.385,-0.450
1292079,-0.355,-0.455
1292080,-0.360,-0.450
1292081,-0.335,-0.440
1292082,-0.320,-0.470
1292083,-0.330,-0.455
1292084,-0.345,-0.450
1292085,-0.345,-0.445
1292086,-0.330,-0.455
1292087,-0.310,-0.470
1292088,-0.340,-0.450
1292089,-0.350,-0.425
1292090,-0.340,-0.475
1292091,-0.335,-0.460
1292092,-0.335,-0.465
1292093,-0.360,-0.445
1292094,-0.350,-0.450
1292095,-0.365,-0.460
1292096,-0.360,-0.435
1292097,-0.345,-0.435
1292098,-0.350,-0.440
1292099,-0.365,-0.455
1292100,-0.345,-0.425
1292101,-0.365,-0.425
1292102,-0.355,-0.430
1292103,-0.365,-0.430
1292104,-0.355,-0.425
1292105,-0.375,-0.405
1292106,-0.395,-0.400
1292107,-0.375,-0.425
1292108,-0.405,-0.415
1292109,-0.375,-0.405
1292110,-0.395,-0.405
1292111,-0.385,-0.420
1292112,-0.395,-0.440
1292113,-0.375,-0.405
1292114,-0.390,-0.385
1292115,-0.385,-0.365
1292116,-0.415,-0.350
1292117,-0.395,-0.335
1292118,-0.370,-0.320
1292119,-0.385,-0.305
1292120,-0.370,-0.270
1292121,-0.300,-0.240
1292122,-0.270,-0.235
1292123,-0.270,-0.210
1292124,-0.210,-0.210
1292125,-0.185,-0.190
1292126,-0.190,-0.210
1292127,-0.180,-0.255
1292128,-0.245,-0.270
1292129,-0.255,-0.260
1292130,-0.290,-0.265
1292131,-0.340,-0.315
1292132,-0.350,-0.340
1292133,-0.355,-0.335
1292134,-0.390,-0.360
1292135,-0.420,-0.390
1292136,-0.435,-0.470
1292137,-0.415,-0.460
1292138,-0.395,-0.425
1292139,-0.415,-0.425
1292140,-0.435,-0.460
1292141,-0.410,-0.470
1292142,-0.430,-0.465
1292143,-0.445,-0.450
1292144,-0.440,-0.460
1292145,-0.460,-0.470
1292146,-0.425,-0.435
1292147,-0.435,-0.445
1292148,-0.440,-0.465
1292149,-0.440,-0.480
1292150,-0.430,-0.455
1292151,-0.420,-0.485
1292152,-0.435,-0.480
1292153,-0.425,-0.430
1292154,-0.435,-0.440
1292155,-0.440,-0.435
1292156,-0.430,-0.435
1292157,-0.425,-0.410
1292158,-0.425,-0.405
1292159,-0.435,-0.340
1292160,-0.425,-0.225
1292161,-0.410,-0.075
1292162,-0.350,0.255
1292163,-0.300,0.600
1292164,-0.390,0.770
1292165,-0.655,0.820
1292166,-1.110,0.895
1292167,-1.810,0.985
1292168,-2.420,1.105
1292169,-2.840,1.070
1292170,-3.000,1.005
1292171,-3.015,0.945
1292172,-2.905,0.820
1292173,-2.745,0.690
1292174,-2.635,0.585
1292175,-2.510,0.420
1292176,-2.345,0.260
1292177,-2.155,0.185
1292178,-2.055,0.150
1292179,-1.950,0.150
1292180,-1.805,0.115
1292181,-1.695,-0.040
1292182,-1.540,-0.350
1292183,-1.450,-0.670
1292184,-1.330,-0.825
1292185,-1.150,-0.885
1292186,-1.045,-0.835
1292187,-0.910,-0.730
1292188,-0.770,-0.655
1292189,-0.615,-0.600
1292190,-0.450,-0.560
1292191,-0.310,-0.520
1292192,-0.170,-0.520
1292193,-0.105,-0.525
1292194,-0.060,-0.535
1292195,-0.040,-0.515
1292196,-0.030,-0.490
1292197,0.010,-0.495
1292198,0.030,-0.500
1292199,0.040,-0.470
1292200,0.055,-0.495
1292201,0.080,-0.475
1292202,0.100,-0.460
1292203,0.080,-0.455
1292204,0.090,-0.425
1292205,0.080,-0.415
1292206,0.120,-0.405
1292207,0.145,-0.415
1292208,0.150,-0.410
1292209,0.170,-0.410
1292210,0.205,-0.395
1292211,0.220,-0.400
1292212,0.250,-0.390
1292213,0.275,-0.365
1292214,0.285,-0.350
1292215,0.305,-0.355
1292216,0.335,-0.325
1292217,0.360,-0.355
1292218,0.365,-0.360
1292219,0.405,-0.365
1292220,0.430,-0.340
1292221,0.445,-0.340
1292222,0.485,-0.345
1292223,0.495,-0.305
1292224,0.515,-0.275
1292225,0.540,-0.285
1292226,0.555,-0.290
1292227,0.570,-0.250
1292228,0.555,-0.240
1292229,0.535,-0.220
1292230,0.555,-0.195
1292231,0.525,-0.175
1292232,0.505,-0.150
1292233,0.480,-0.185
1292234,0.440,-0.160
1292235,0.390,-0.140
1292236,0.330,-0.120
1292237,0.275,-0.140
1292238,0.265,-0.160
1292239,0.195,-0.185
1292240,0.135,-0.185
1292241,0.085,-0.175
1292242,0.045,-0.230
1292243,-0.005,-0.280
1292244,-0.035,-0.270
1292245,-0.070,-0.270
1292246,-0.115,-0.290
1292247,-0.130,-0.315
1292248,-0.155,-0.315
1292249,-0.180,-0.355
1292250,-0.180,-0.380
1292251,-0.200,-0.360
1292252,-0.215,-0.390
1292253,-0.230,-0.410
1292254,-0.205,-0.385
1292255,-0.205,-0.355
1292256,-0.220,-0.370
1292257,-0.225,-0.420
1292258,-0.220,-0.410
1292259,-0.205,-0.405
1292260,-0.185,-0.410
1292261,-0.220,-0.420
1292262,-0.230,-0.435
1292263,-0.210,-0.440
1292264,-0.205,-0.455
1292265,-0.190,-0.455
1292266,-0.190,-0.450
1292267,-0.180,-0.445
1292268,-0.190,-0.435
1292269,-0.170,-0.440
1292270,-0.160,-0.455
1292271,-0.160,-0.465
1292272,-0.145,-0.490
1292273,-0.135,-0.510
1292274,-0.135,-0.505
1292275,-0.155,-0.490
1292276,-0.110,-0.490
1292277,-0.105,-0.525
1292278,-0.120,-0.540
1292279,-0.100,-0.530
1292280,-0.090,-0.560
1292281,-0.105,-0.560
1292282,-0.070,-0.535
1292283,-0.070,-0.540
1292284,-0.085,-0.535
1292285,-0.095,-0.545
1292286,-0.115,-0.560
1292287,-0.125,-0.520
1292288,-0.115,-0.515
1292289,-0.095,-0.540
1292290,-0.105,-0.575
1292291,-0.120,-0.550
1292292,-0.110,-0.520
1292293,-0.105,-0.525
1292294,-0.120,-0.525
1292295,-0.135,-0.485
1292296,-0.115,-0.505
1292297,-0.140,-0.535
1292298,-0.140,-0.525
1292299,-0.130,-0.540
1292300,-0.135,-0.500
1292301,-0.115,-0.500
1292302,-0.140,-0.480
1292303,-0.125,-0.495
1292304,-0.120,-0.475
1292305,-0.130,-0.485
1292306,-0.120,-0.465
1292307,-0.125,-0.480
1292308,-0.125,-0.445
1292309,-0.120,-0.470
1292310,-0.125,-0.480
1292311,-0.100,-0.510
1292312,-0.130,-0.470
1292313,-0.110,-0.440
1292314,-0.110,-0.430
1292315,-0.110,-0.430
1292316,-0.120,-0.440
1292317,-0.100,-0.445
1292318,-0.085,-0.435
1292319,-0.075,-0.455
1292320,-0.085,-0.415
1292321,-0.095,-0.410
1292322,-0.090,-0.380
1292323,-0.070,-0.360
1292324,-0.090,-0.320
1292325,-0.060,-0.320
1292326,-0.040,-0.305
1292327,-0.005,-0.295
1292328,0.005,-0.260
1292329,0.030,-0.220
1292330,0.075,-0.225
1292331,0.095,-0.225
1292332,0.100,-0.240
1292333,0.095,-0.235
1292334,0.080,-0.245
1292335,0.045,-0.255
1292336,0.000,-0.285
1292337,-0.045,-0.305
1292338,-0.030,-0.320
1292339,-0.055,-0.365
1292340,-0.080,-0.390
1292341,-0.095,-0.390
1292342,-0.140,-0.435
1292343,-0.155,-0.450
1292344,-0.135,-0.475
1292345,-0.100,-0.480
1292346,-0.130,-0.475
1292347,-0.125,-0.470
1292348,-0.145,-0.485
1292349,-0.135,-0.475
1292350,-0.125,-0.450
1292351,-0.145,-0.465
1292352,-0.160,-0.470
1292353,-0.145,-0.470
1292354,-0.135,-0.465
1292355,-0.150,-0.450
1292356,-0.140,-0.465
1292357,-0.140,-0.450
1292358,-0.130,-0.465
1292359,-0.155,-0.440
1292360,-0.150,-0.460
1292361,-0.135,-0.460
1292362,-0.145,-0.440
1292363,-0.140,-0.425
1292364,-0.140,-0.400
1292365,-0.150,-0.395
1292366,-0.115,-0.365
1292367,-0.130,-0.270
1292368,-0.135,-0.155
1292369,-0.100,0.045
1292370,-0.040,0.385
1292371,0.000,0.775
1292372,-0.110,0.945
1292373,-0.380,1.015
1292374,-0.830,1.020
1292375,-1.460,1.130
1292376,-2.035,1.265
1292377,-2.495,1.225
1292378,-2.750,1.140
1292379,-2.785,1.045
1292380,-2.660,0.955
1292381,-2.495,0.825
1292382,-2.350,0.690
1292383,-2.240,0.565
1292384,-2.095,0.460
1292385,-1.905,0.365
1292386,-1.775,0.315
1292387,-1.655,0.310
1292388,-1.530,0.310
1292389,-1.395,0.235
1292390,-1.265,-0.025
1292391,-1.150,-0.400
1292392,-1.055,-0.685
1292393,-0.935,-0.790
1292394,-0.800,-0.800
1292395,-0.675,-0.740
1292396,-0.560,-0.665
1292397,-0.410,-0.600
1292398,-0.265,-0.540
1292399,-0.100,-0.510
1292400,0.025,-0.475
1292401,0.205,-0.475
1292402,0.280,-0.465
1292403,0.305,-0.440
1292404,0.375,-0.455
1292405,0.375,-0.430
1292406,0.400,-0.415
1292407,0.450,-0.390
1292408,0.450,-0.405
1292409,0.450,-0.415
1292410,0.475,-0.405
1292411,0.500,-0.385
1292412,0.505,-0.400
1292413,0.505,-0.385
1292414,0.520,-0.365
1292415,0.520,-0.360
1292416,0.535,-0.360
1292417,0.545,-0.380
1292418,0.565,-0.355
1292419,0.600,-0.350
1292420,0.610,-0.350
1292421,0.620,-0.360
1292422,0.640,-0.340
1292423,0.675,-0.340
1292424,0.680,-0.340
1292425,0.690,-0.355
1292426,0.695,-0.365
1292427,0.730,-0.340
1292428,0.790,-0.375
1292429,0.805,-0.400
1292430,0.800,-0.375
1292431,0.840,-0.370
1292432,0.860,-0.360
1292433,0.865,-0.360
1292434,0.900,-0.340
1292435,0.885,-0.320
1292436,0.870,-0.315
1292437,0.890,-0.325
1292438,0.920,-0.310
1292439,0.895,-0.270
1292440,0.880,-0.255
1292441,0.845,-0.225
1292442,0.850,-0.205
1292443,0.795,-0.180
1292444,0.750,-0.160
1292445,0.715,-0.125
1292446,0.675,-0.120
1292447,0.640,-0.105
1292448,0.570,-0.095
1292449,0.550,-0.095
1292450,0.490,-0.105
1292451,0.430,-0.130
1292452,0.410,-0.110
1292453,0.350,-0.125
1292454,0.295,-0.160
1292455,0.275,-0.145
1292456,0.235,-0.155
1292457,0.215,-0.160
1292458,0.180,-0.200
1292459,0.155,-0.195
1292460,0.130,-0.190
1292461,0.110,-0.175
1292462,0.100,-0.195
1292463,0.105,-0.220
1292464,0.080,-0.210
1292465,0.080,-0.205
1292466,0.075,-0.225
1292467,0.090,-0.215
1292468,0.060,-0.225
1292469,0.065,-0.215
1292470,0.075,-0.225
1292471,0.080,-0.245
1292472,0.100,-0.235
1292473,0.085,-0.220
1292474,0.110,-0.220
1292475,0.095,-0.205
1292476,0.085,-0.240
1292477,0.085,-0.250
1292478,0.095,-0.265
1292479,0.115,-0.265
1292480,0.130,-0.275
1292481,0.120,-0.295
1292482,0.130,-0.275
1292483,0.105,-0.280
1292484,0.100,-0.295
1292485,0.105,-0.295
1292486,0.095,-0.300
1292487,0.110,-0.305
1292488,0.105,-0.325
1292489,0.095,-0.320
1292490,0.105,-0.325
1292491,0.075,-0.320
1292492,0.075,-0.340
1292493,0.070,-0.340
1292494,0.100,-0.330
1292495,0.105,-0.320
1292496,0.080,-0.315
1292497,0.095,-0.310
1292498,0.090,-0.320
1292499,0.070,-0.310
1292500,0.055,-0.295
1292501,0.060,-0.330
1292502,0.060,-0.330
1292503,0.065,-0.305
1292504,0.080,-0.300
1292505,0.070,-0.280
1292506,0.060,-0.290
1292507,0.040,-0.290
1292508,0.035,-0.285
1292509,0.055,-0.275
1292510,0.005,-0.290
1292511,0.035,-0.265
1292512,0.040,-0.260
1292513,0.035,-0.260
1292514,0.060,-0.250
1292515,0.055,-0.260
1292516,0.045,-0.255
1292517,0.055,-0.265
1292518,0.050,-0.255
1292519,0.045,-0.235
1292520,0.040,-0.220
1292521,0.055,-0.240
1292522,0.055,-0.220
1292523,0.060,-0.225
1292524,0.065,-0.220
1292525,0.060,-0.200
1292526,0.055,-0.200
1292527,0.045,-0.160
1292528,0.075,-0.110
1292529,0.075,-0.090
1292530,0.100,-0.070
1292531,0.130,-0.065
1292532,0.195,-0.015
1292533,0.230,0.000
1292534,0.240,-0.005
1292535,0.280,0.030
1292536,0.285,0.020
1292537,0.300,-0.010
1292538,0.310,-0.035
1292539,0.270,-0.060
1292540,0.220,-0.045
1292541,0.175,-0.060
1292542,0.135,-0.120
1292543,0.120,-0.115
1292544,0.120,-0.130
1292545,0.080,-0.130
1292546,0.045,-0.160
1292547,0.020,-0.190
1292548,0.015,-0.220
1292549,0.015,-0.240
1292550,0.050,-0.260
1292551,0.035,-0.245
1292552,0.020,-0.225
1292553,0.020,-0.250
1292554,0.015,-0.260
1292555,0.040,-0.250
1292556,0.015,-0.220
1292557,0.025,-0.225
1292558,0.045,-0.250
1292559,0.040,-0.230
1292560,0.010,-0.230
1292561,0.040,-0.230
1292562,0.045,-0.240
1292563,0.055,-0.230
1292564,0.070,-0.245
1292565,0.055,-0.225
1292566,0.075,-0.210
1292567,0.070,-0.240
1292568,0.060,-0.235
1292569,0.070,-0.210
1292570,0.060,-0.200
1292571,0.060,-0.170
1292572,0.050,-0.100
1292573,0.070,0.010
1292574,0.105,0.150
1292575,0.170,0.375
1292576,0.250,0.660
1292577,0.165,0.830
1292578,-0.050,0.910
1292579,-0.450,1.020
1292580,-1.075,1.170
1292581,-1.790,1.345
1292582,-2.250,1.425
1292583,-2.600,1.415
1292584,-2.695,1.360
1292585,-2.580,1.330
1292586,-2.430,1.280
1292587,-2.270,1.185
1292588,-2.115,1.135
1292589,-1.990,1.000
1292590,-1.825,0.880
1292591,-1.630,0.795
1292592,-1.480,0.740
1292593,-1.380,0.725
1292594,-1.235,0.690
1292595,-1.115,0.510
1292596,-0.990,0.165
1292597,-0.855,-0.190
1292598,-0.770,-0.425
1292599,-0.625,-0.510
1292600,-0.505,-0.530
1292601,-0.375,-0.485
1292602,-0.260,-0.450
1292603,-0.120,-0.395
1292604,0.035,-0.345
1292605,0.165,-0.320
1292606,0.310,-0.340
1292607,0.440,-0.330
1292608,0.480,-0.305
1292609,0.500,-0.285
1292610,0.555,-0.295
1292611,0.595,-0.290
1292612,0.610,-0.285
1292613,0.610,-0.270
1292614,0.630,-0.280
1292615,0.650,-0.275
1292616,0.650,-0.255
1292617,0.665,-0.260
1292618,0.710,-0.250
1292619,0.700,-0.240
1292620,0.720,-0.265
1292621,0.740,-0.230
1292622,0.755,-0.230
1292623,0.750,-0.225
1292624,0.760,-0.220
1292625,0.770,-0.215
1292626,0.800,-0.215
1292627,0.835,-0.225
1292628,0.830,-0.215
1292629,0.870,-0.220
1292630,0.875,-0.200
1292631,0.905,-0.200
1292632,0.935,-0.225
1292633,0.975,-0.200
1292634,0.980,-0.185
1292635,1.010,-0.185
1292636,1.020,-0.205
1292637,1.040,-0.210
1292638,1.065,-0.200
1292639,1.080,-0.180
1292640,1.120,-0.190
1292641,1.105,-0.220
1292642,1.100,-0.170
1292643,1.120,-0.160
1292644,1.105,-0.170
1292645,1.105,-0.150
1292646,1.080,-0.110
1292647,1.045,-0.085
1292648,1.000,-0.115
1292649,0.980,-0.100
1292650,0.940,-0.055
1292651,0.885,-0.025
1292652,0.820,-0.010
1292653,0.780,0.005
1292654,0.725,-0.005
1292655,0.685,0.005
1292656,0.625,0.025
1292657,0.580,0.010
1292658,0.540,0.010
1292659,0.480,0.000
1292660,0.420,-0.005
1292661,0.365,-0.010
1292662,0.360,-0.035
1292663,0.350,-0.025
1292664,0.310,-0.020
1292665,0.270,-0.035
1292666,0.280,-0.080
1292667,0.255,-0.080
1292668,0.230,-0.075
1292669,0.240,-0.065
1292670,0.205,-0.105
1292671,0.200,-0.085
1292672,0.195,-0.100
1292673,0.190,-0.080
1292674,0.190,-0.095
1292675,0.205,-0.100
1292676,0.200,-0.115
1292677,0.195,-0.130
1292678,0.185,-0.135
1292679,0.215,-0.120
1292680,0.200,-0.110
1292681,0.210,-0.120
1292682,0.185,-0.140
1292683,0.185,-0.140
1292684,0.190,-0.140
1292685,0.210,-0.135
1292686,0.205,-0.160
1292687,0.220,-0.165
1292688,0.200,-0.200
1292689,0.215,-0.190
1292690,0.200,-0.170
1292691,0.200,-0.150
1292692,0.220,-0.185
1292693,0.225,-0.180
1292694,0.195,-0.180
1292695,0.195,-0.190
1292696,0.210,-0.210
1292697,0.225,-0.195
1292698,0.235,-0.200
1292699,0.200,-0.195
1292700,0.205,-0.190
1292701,0.210,-0.190
1292702,0.210,-0.175
1292703,0.195,-0.185
1292704,0.185,-0.190
1292705,0.185,-0.190
1292706,0.190,-0.200
1292707,0.190,-0.175
1292708,0.185,-0.195
1292709,0.180,-0.175
1292710,0.180,-0.185
1292711,0.175,-0.170
1292712,0.155,-0.165
1292713,0.165,-0.165
1292714,0.155,-0.175
1292715,0.175,-0.180
1292716,0.165,-0.155
1292717,0.185,-0.150
1292718,0.175,-0.165
1292719,0.180,-0.160
1292720,0.155,-0.155
1292721,0.155,-0.145
1292722,0.170,-0.145
1292723,0.150,-0.155
1292724,0.155,-0.155
1292725,0.150,-0.120
1292726,0.160,-0.125
1292727,0.150,-0.125
1292728,0.150,-0.130
1292729,0.150,-0.100
1292730,0.160,-0.105
1292731,0.140,-0.120
1292732,0.165,-0.115
1292733,0.155,-0.120
1292734,0.160,-0.130
1292735,0.170,-0.115
1292736,0.155,-0.070
1292737,0.170,-0.020
1292738,0.160,0.015
1292739,0.185,0.005
1292740,0.210,0.020
1292741,0.260,0.070
1292742,0.280,0.120
1292743,0.320,0.110
1292744,0.345,0.115
1292745,0.375,0.105
1292746,0.395,0.075
1292747,0.430,0.070
1292748,0.390,0.035
1292749,0.340,0.035
1292750,0.285,0.025
1292751,0.225,0.000
1292752,0.205,-0.055
1292753,0.215,-0.050
1292754,0.170,-0.040
1292755,0.115,-0.050
1292756,0.095,-0.090
1292757,0.100,-0.150
1292758,0.120,-0.175
1292759,0.125,-0.185
1292760,0.135,-0.190
1292761,0.105,-0.180
1292762,0.100,-0.170
1292763,0.090,-0.165
1292764,0.120,-0.180
1292765,0.135,-0.170
1292766,0.100,-0.145
1292767,0.095,-0.160
1292768,0.125,-0.155
1292769,0.100,-0.165
1292770,0.085,-0.175
1292771,0.105,-0.160
1292772,0.110,-0.155
1292773,0.090,-0.155
1292774,0.100,-0.175
1292775,0.100,-0.145
1292776,0.125,-0.145
1292777,0.115,-0.130
1292778,0.100,-0.125
1292779,0.095,-0.115
1292780,0.120,-0.100
1292781,0.105,-0.060
1292782,0.115,-0.010
1292783,0.110,0.140
1292784,0.160,0.335
1292785,0.240,0.560
1292786,0.240,0.790
1292787,0.080,0.875
1292788,-0.250,0.980
1292789,-0.815,1.120
1292790,-1.580,1.270
1292791,-2.210,1.360
1292792,-2.585,1.365
1292793,-2.740,1.375
1292794,-2.650,1.340
1292795,-2.535,1.285
1292796,-2.330,1.210
1292797,-2.160,1.120
1292798,-2.045,1.010
1292799,-1.850,0.880
1292800,-1.600,0.740
1292801,-1.515,0.715
1292802,-1.420,0.685
1292803,-1.290,0.660
1292804,-1.135,0.505
1292805,-1.035,0.220
1292806,-0.920,-0.110
1292807,-0.850,-0.335
1292808,-0.700,-0.420
1292809,-0.565,-0.450
1292810,-0.440,-0.410
1292811,-0.320,-0.370
1292812,-0.150,-0.325
1292813,0.000,-0.315
1292814,0.130,-0.285
1292815,0.280,-0.260
1292816,0.385,-0.245
1292817,0.470,-0.240
1292818,0.500,-0.230
1292819,0.520,-0.215
1292820,0.545,-0.245
1292821,0.560,-0.220
1292822,0.595,-0.205
1292823,0.610,-0.195
1292824,0.595,-0.185
1292825,0.615,-0.200
1292826,0.640,-0.165
1292827,0.635,-0.155
1292828,0.655,-0.155
1292829,0.675,-0.170
1292830,0.675,-0.130
1292831,0.710,-0.140
1292832,0.720,-0.120
1292833,0.750,-0.130
1292834,0.780,-0.120
1292835,0.785,-0.115
1292836,0.790,-0.110
1292837,0.800,-0.110
1292838,0.835,-0.105
1292839,0.890,-0.085
1292840,0.870,-0.065
1292841,0.915,-0.080
1292842,0.975,-0.090
1292843,0.965,-0.075
1292844,0.965,-0.055
1292845,1.005,-0.080
1292846,1.035,-0.045
1292847,1.070,-0.040
1292848,1.070,-0.035
1292849,1.090,-0.065
1292850,1.090,-0.040
1292851,1.095,-0.045
1292852,1.095,-0.020
1292853,1.070,0.005
1292854,1.050,0.020
1292855,1.015,0.030
1292856,0.970,0.035
1292857,0.945,0.075
1292858,0.890,0.040
1292859,0.860,0.050
1292860,0.805,0.055
1292861,0.755,0.075
1292862,0.690,0.055
1292863,0.655,0.045
1292864,0.590,0.060
1292865,0.520,0.055
1292866,0.465,0.050
1292867,0.420,0.020
1292868,0.370,0.005
1292869,0.350,0.000
1292870,0.310,-0.010
1292871,0.290,-0.030
1292872,0.235,-0.050
1292873,0.210,-0.055
1292874,0.195,-0.085
1292875,0.190,-0.070
1292876,0.150,-0.085
1292877,0.150,-0.090
1292878,0.150,-0.085
1292879,0.150,-0.085
1292880,0.135,-0.090
1292881,0.120,-0.100
1292882,0.120,-0.120
1292883,0.120,-0.110
1292884,0.120,-0.120
1292885,0.120,-0.145
1292886,0.120,-0.130
1292887,0.105,-0.145
1292888,0.135,-0.140
1292889,0.095,-0.160
1292890,0.115,-0.145
1292891,0.100,-0.165
1292892,0.120,-0.175
1292893,0.100,-0.200
1292894,0.080,-0.170
1292895,0.105,-0.180
1292896,0.065,-0.200
1292897,0.090,-0.210
1292898,0.060,-0.190
1292899,0.045,-0.195
1292900,0.045,-0.225
1292901,0.030,-0.215
1292902,0.015,-0.215
1292903,0.060,-0.225
1292904,0.040,-0.215
1292905,0.050,-0.220
1292906,0.025,-0.220
1292907,0.025,-0.210
1292908,0.030,-0.210
1292909,0.035,-0.220
1292910,0.005,-0.210
1292911,0.010,-0.215
1292912,0.030,-0.210
1292913,-0.025,-0.185
1292914,-0.030,-0.200
1292915,-0.035,-0.190
1292916,-0.010,-0.180
1292917,-0.050,-0.180
1292918,-0.075,-0.185
1292919,-0.060,-0.155
1292920,-0.090,-0.175
1292921,-0.085,-0.165
1292922,-0.100,-0.130
1292923,-0.080,-0.095
1292924,-0.110,-0.105
1292925,-0.095,-0.095
1292926,-0.130,-0.085
1292927,-0.120,-0.090
1292928,-0.125,-0.085
1292929,-0.155,-0.085
1292930,-0.130,-0.085
1292931,-0.120,-0.070
1292932,-0.150,-0.080
1292933,-0.160,-0.100
1292934,-0.165,-0.120
1292935,-0.145,-0.090
1292936,-0.170,-0.080
1292937,-0.140,-0.090
1292938,-0.140,-0.100
1292939,-0.145,-0.100
1292940,-0.145,-0.085
1292941,-0.165,-0.090
1292942,-0.195,-0.090
1292943,-0.175,-0.070
1292944,-0.160,-0.070
1292945,-0.205,-0.105
1292946,-0.200,-0.110
1292947,-0.205,-0.100
1292948,-0.200,-0.090
1292949,-0.210,-0.080
1292950,-0.175,-0.065
1292951,-0.175,-0.020
1292952,-0.200,0.025
1292953,-0.185,0.000
1292954,-0.155,0.030
1292955,-0.125,0.060
1292956,-0.110,0.120
1292957,-0.090,0.115
1292958,-0.045,0.110
1292959,-0.025,0.105
1292960,0.005,0.110
1292961,0.005,0.060
1292962,-0.040,0.020
1292963,-0.085,0.030
1292964,-0.160,0.000
1292965,-0.210,-0.035
1292966,-0.220,-0.070
1292967,-0.250,-0.050
1292968,-0.290,-0.045
1292969,-0.305,-0.125
1292970,-0.320,-0.185
1292971,-0.320,-0.205
1292972,-0.295,-0.215
1292973,-0.305,-0.210
1292974,-0.310,-0.195
1292975,-0.315,-0.200
1292976,-0.305,-0.190
1292977,-0.305,-0.195
1292978,-0.320,-0.220
1292979,-0.295,-0.210
1292980,-0.300,-0.200
1292981,-0.305,-0.180
1292982,-0.305,-0.200
1292983,-0.295,-0.200
1292984,-0.305,-0.190
1292985,-0.300,-0.190
1292986,-0.310,-0.210
1292987,-0.280,-0.195
1292988,-0.275,-0.195
1292989,-0.275,-0.180
1292990,-0.285,-0.190
1292991,-0.275,-0.180
1292992,-0.280,-0.140
1292993,-0.280,-0.085
1292994,-0.275,-0.005
1292995,-0.255,0.145
1292996,-0.220,0.365
1292997,-0.155,0.620
1292998,-0.175,0.755
1292999,-0.410,0.805
1293000,-0.805,0.900
1293001,-1.530,1.025
1293002,-2.240,1.160
1293003,-2.685,1.200
1293004,-2.920,1.160
1293005,-2.965,1.155
1293006,-2.910,1.135
1293007,-2.775,1.085
1293008,-2.615,1.015
1293009,-2.530,0.920
1293010,-2.355,0.775
1293011,-2.165,0.635
1293012,-2.030,0.585
1293013,-1.900,0.530
1293014,-1.765,0.490
1293015,-1.610,0.385
1293016,-1.470,0.165
1293017,-1.385,-0.190
1293018,-1.275,-0.420
1293019,-1.160,-0.500
1293020,-1.035,-0.520
1293021,-0.870,-0.500
1293022,-0.720,-0.460
1293023,-0.580,-0.425
1293024,-0.430,-0.385
1293025,-0.255,-0.365
1293026,-0.105,-0.330
1293027,-0.040,-0.340
1293028,0.025,-0.340
1293029,0.075,-0.335
1293030,0.095,-0.310
1293031,0.120,-0.265
1293032,0.150,-0.280
1293033,0.190,-0.275
1293034,0.205,-0.275
1293035,0.195,-0.260
1293036,0.220,-0.255
1293037,0.230,-0.250
1293038,0.225,-0.240
1293039,0.255,-0.235
1293040,0.250,-0.215
1293041,0.290,-0.205
1293042,0.280,-0.210
1293043,0.310,-0.185
1293044,0.345,-0.175
1293045,0.370,-0.185
1293046,0.395,-0.180
1293047,0.405,-0.155
1293048,0.440,-0.145
1293049,0.480,-0.155
1293050,0.515,-0.150
1293051,0.535,-0.135
1293052,0.540,-0.135
1293053,0.575,-0.125
1293054,0.595,-0.100
1293055,0.620,-0.090
1293056,0.650,-0.095
1293057,0.690,-0.090
1293058,0.705,-0.065
1293059,0.705,-0.065
1293060,0.735,-0.080
1293061,0.740,-0.075
1293062,0.760,-0.045
1293063,0.730,-0.020
1293064,0.700,-0.020
1293065,0.670,-0.010
1293066,0.625,-0.010
1293067,0.600,0.005
1293068,0.545,0.000
1293069,0.475,0.000
1293070,0.430,0.015
1293071,0.390,0.020
1293072,0.325,0.010
1293073,0.275,-0.010
1293074,0.200,-0.010
1293075,0.135,-0.025
1293076,0.100,-0.055
1293077,0.035,-0.080
1293078,0.010,-0.095
1293079,-0.015,-0.090
1293080,-0.040,-0.110
1293081,-0.070,-0.160
1293082,-0.100,-0.140
1293083,-0.120,-0.130
1293084,-0.145,-0.150
1293085,-0.160,-0.185
1293086,-0.135,-0.160
1293087,-0.160,-0.160
1293088,-0.170,-0.195
1293089,-0.170,-0.205
1293090,-0.175,-0.195
1293091,-0.155,-0.165
1293092,-0.160,-0.180
1293093,-0.155,-0.205
1293094,-0.160,-0.205
1293095,-0.170,-0.185
1293096,-0.160,-0.210
1293097,-0.170,-0.230
1293098,-0.160,-0.240
1293099,-0.120,-0.260
1293100,-0.140,-0.245
1293101,-0.150,-0.245
1293102,-0.165,-0.260
1293103,-0.140,-0.260
1293104,-0.145,-0.260
1293105,-0.135,-0.285
1293106,-0.140,-0.250
1293107,-0.140,-0.280
1293108,-0.140,-0.270
1293109,-0.160,-0.280
1293110,-0.145,-0.280
1293111,-0.150,-0.290
1293112,-0.150,-0.290
1293113,-0.160,-0.300
1293114,-0.175,-0.290
1293115,-0.160,-0.305
1293116,-0.200,-0.300
1293117,-0.190,-0.320
1293118,-0.180,-0.350
1293119,-0.200,-0.330
1293120,-0.195,-0.320
1293121,-0.200,-0.340
1293122,-0.190,-0.340
1293123,-0.215,-0.315
1293124,-0.220,-0.315
1293125,-0.220,-0.340
1293126,-0.225,-0.315
1293127,-0.215,-0.300
1293128,-0.200,-0.305
1293129,-0.235,-0.310
1293130,-0.220,-0.310
1293131,-0.230,-0.310
1293132,-0.245,-0.300
1293133,-0.230,-0.295
1293134,-0.240,-0.310
1293135,-0.210,-0.290
1293136,-0.235,-0.280
1293137,-0.240,-0.270
1293138,-0.245,-0.285
1293139,-0.235,-0.265
1293140,-0.220,-0.290
1293141,-0.215,-0.265
1293142,-0.225,-0.285
1293143,-0.210,-0.285
1293144,-0.240,-0.255
1293145,-0.230,-0.255
1293146,-0.230,-0.265
1293147,-0.225,-0.250
1293148,-0.215,-0.245
1293149,-0.230,-0.255
1293150,-0.215,-0.270
1293151,-0.220,-0.260
1293152,-0.205,-0.245
1293153,-0.205,-0.250
1293154,-0.230,-0.230
1293155,-0.220,-0.255
1293156,-0.225,-0.245
1293157,-0.225,-0.235
1293158,-0.200,-0.240
1293159,-0.225,-0.240
1293160,-0.190,-0.230
1293161,-0.195,-0.225
1293162,-0.210,-0.195
1293163,-0.225,-0.180
1293164,-0.215,-0.135
1293165,-0.200,-0.115
1293166,-0.150,-0.090
1293167,-0.100,-0.080
1293168,-0.120,-0.040
1293169,-0.090,-0.015
1293170,-0.040,-0.035
