'sample interval','ECG1','ECG2'
'0.004 sec','mV','mV'
1737500,-0.130,-0.275
1737501,-0.125,-0.280
1737502,-0.120,-0.300
1737503,-0.105,-0.270
1737504,-0.110,-0.275
1737505,-0.125,-0.300
1737506,-0.120,-0.325
1737507,-0.110,-0.285
1737508,-0.120,-0.235
1737509,-0.125,-0.240
1737510,-0.120,-0.340
1737511,-0.130,-0.330
1737512,-0.125,-0.320
1737513,-0.135,-0.335
1737514,-0.130,-0.370
1737515,-0.110,-0.380
1737516,-0.130,-0.340
1737517,-0.110,-0.335
1737518,-0.135,-0.345
1737519,-0.115,-0.355
1737520,-0.125,-0.350
1737521,-0.120,-0.335
1737522,-0.130,-0.365
1737523,-0.115,-0.370
1737524,-0.130,-0.365
1737525,-0.155,-0.375
1737526,-0.150,-0.365
1737527,-0.110,-0.360
1737528,-0.095,-0.345
1737529,-0.080,-0.355
1737530,-0.065,-0.335
1737531,-0.035,-0.310
1737532,0.025,-0.270
1737533,0.045,-0.275
1737534,0.050,-0.300
1737535,0.020,-0.320
1737536,-0.025,-0.345
1737537,-0.080,-0.330
1737538,-0.095,-0.430
1737539,-0.120,-0.510
1737540,-0.125,-0.485
1737541,-0.130,-0.420
1737542,-0.140,-0.360
1737543,-0.130,-0.335
1737544,-0.130,-0.330
1737545,-0.140,-0.395
1737546,-0.150,-0.500
1737547,-0.150,-0.525
1737548,-0.120,-0.475
1737549,-0.145,-0.410
1737550,-0.120,-0.360
1737551,-0.130,-0.310
1737552,-0.125,-0.190
1737553,-0.120,-0.045
1737554,-0.060,0.200
1737555,0.010,0.610
1737556,0.050,1.005
1737557,-0.130,1.220
1737558,-0.460,1.290
1737559,-1.020,1.330
1737560,-1.760,1.545
1737561,-2.420,1.655
1737562,-2.830,1.535
1737563,-3.040,1.425
1737564,-3.000,1.395
1737565,-2.855,1.290
1737566,-2.675,1.230
1737567,-2.565,1.120
1737568,-2.455,0.965
1737569,-2.220,0.830
1737570,-1.985,0.735
1737571,-1.815,0.715
1737572,-1.635,0.735
1737573,-1.465,0.700
1737574,-1.335,0.475
1737575,-1.210,0.000
1737576,-1.115,-0.505
1737577,-0.975,-0.855
1737578,-0.830,-0.960
1737579,-0.690,-0.885
1737580,-0.545,-0.785
1737581,-0.410,-0.750
1737582,-0.240,-0.670
1737583,-0.065,-0.635
1737584,0.085,-0.620
1737585,0.235,-0.595
1737586,0.325,-0.575
1737587,0.390,-0.545
1737588,0.390,-0.505
1737589,0.440,-0.525
1737590,0.475,-0.540
1737591,0.500,-0.550
1737592,0.525,-0.545
1737593,0.525,-0.555
1737594,0.555,-0.555
1737595,0.575,-0.500
1737596,0.620,-0.480
1737597,0.630,-0.455
1737598,0.635,-0.475
1737599,0.625,-0.445
1737600,0.655,-0.415
1737601,0.690,-0.435
1737602,0.705,-0.485
1737603,0.750,-0.495
1737604,0.775,-0.475
1737605,0.805,-0.455
1737606,0.820,-0.380
1737607,0.870,-0.355
1737608,0.880,-0.485
1737609,0.890,-0.525
1737610,0.935,-0.485
1737611,0.955,-0.440
1737612,0.975,-0.425
1737613,1.005,-0.455
1737614,1.035,-0.440
1737615,1.045,-0.425
1737616,1.075,-0.420
1737617,1.060,-0.400
1737618,1.080,-0.400
1737619,1.085,-0.370
1737620,1.090,-0.335
1737621,1.080,-0.320
1737622,1.070,-0.335
1737623,1.035,-0.320
1737624,0.995,-0.285
1737625,0.940,-0.235
1737626,0.865,-0.190
1737627,0.865,-0.185
1737628,0.830,-0.195
1737629,0.810,-0.180
1737630,0.815,-0.190
1737631,0.765,-0.175
1737632,0.725,-0.190
1737633,0.695,-0.235
1737634,0.660,-0.295
1737635,0.615,-0.325
1737636,0.495,-0.355
1737637,0.385,-0.380
1737638,0.265,-0.320
1737639,0.210,-0.350
1737640,0.135,-0.425
1737641,0.075,-0.500
1737642,0.050,-0.625
1737643,0.030,-0.735
1737644,0.005,-0.720
1737645,0.015,-0.720
1737646,0.020,-0.720
1737647,0.025,-0.685
1737648,-0.005,-0.690
1737649,-0.025,-0.720
1737650,0.010,-0.720
1737651,0.025,-0.750
1737652,0.010,-0.795
1737653,0.010,-0.805
1737654,-0.005,-0.775
1737655,-0.005,-0.770
1737656,0.005,-0.790
1737657,0.015,-0.780
1737658,0.020,-0.760
1737659,0.025,-0.775
1737660,0.025,-0.800
1737661,0.040,-0.805
1737662,0.025,-0.810
1737663,0.050,-0.835
1737664,0.040,-0.695
1737665,0.050,-0.385
1737666,0.080,-0.055
1737667,0.180,0.205
1737668,0.230,0.335
1737669,0.150,0.420
1737670,-0.145,0.460
1737671,-0.695,0.545
1737672,-1.450,0.660
1737673,-2.075,0.745
1737674,-2.530,0.645
1737675,-2.755,0.530
1737676,-2.720,0.405
1737677,-2.555,0.240
1737678,-2.420,0.130
1737679,-2.325,0.060
1737680,-2.155,0.065
1737681,-1.980,0.050
1737682,-1.825,0.050
1737683,-1.680,-0.025
1737684,-1.505,-0.180
1737685,-1.370,-0.530
1737686,-1.250,-0.910
1737687,-1.105,-1.095
1737688,-0.995,-1.215
1737689,-0.850,-1.300
1737690,-0.700,-1.300
1737691,-0.555,-1.220
1737692,-0.355,-1.145
1737693,-0.185,-1.080
1737694,0.015,-1.000
1737695,0.180,-1.005
1737696,0.310,-0.975
1737697,0.365,-0.970
1737698,0.435,-0.925
1737699,0.450,-0.900
1737700,0.475,-0.960
1737701,0.525,-0.945
1737702,0.530,-0.870
1737703,0.560,-0.850
1737704,0.590,-0.885
1737705,0.620,-0.915
1737706,0.600,-0.950
1737707,0.620,-0.955
1737708,0.645,-0.890
1737709,0.670,-0.820
1737710,0.690,-0.765
1737711,0.715,-0.735
1737712,0.715,-0.765
1737713,0.735,-0.920
1737714,0.785,-1.025
1737715,0.815,-0.980
1737716,0.815,-0.925
1737717,0.835,-0.945
1737718,0.885,-0.940
1737719,0.900,-0.980
1737720,0.915,-1.010
1737721,0.935,-0.980
1737722,0.960,-0.975
1737723,0.960,-0.960
1737724,1.010,-0.920
1737725,1.005,-0.930
1737726,1.000,-0.900
1737727,1.000,-0.885
1737728,0.990,-0.955
1737729,0.970,-0.935
1737730,0.980,-0.840
1737731,0.935,-0.755
1737732,0.920,-0.720
1737733,0.865,-0.765
1737734,0.835,-0.785
1737735,0.785,-0.760
1737736,0.740,-0.690
1737737,0.705,-0.710
1737738,0.660,-0.720
1737739,0.575,-0.710
1737740,0.540,-0.700
1737741,0.500,-0.710
1737742,0.435,-0.710
1737743,0.420,-0.695
1737744,0.365,-0.720
1737745,0.335,-0.785
1737746,0.285,-0.795
1737747,0.255,-0.740
1737748,0.240,-0.680
1737749,0.250,-0.715
1737750,0.215,-0.720
1737751,0.180,-0.670
1737752,0.170,-0.640
1737753,0.175,-0.690
1737754,0.185,-0.780
1737755,0.160,-0.860
1737756,0.150,-0.820
1737757,0.160,-0.755
1737758,0.160,-0.710
1737759,0.150,-0.725
1737760,0.120,-0.775
1737761,0.130,-0.810
1737762,0.145,-0.795
1737763,0.125,-0.755
1737764,0.150,-0.695
1737765,0.130,-0.655
1737766,0.100,-0.640
1737767,0.110,-0.660
1737768,0.095,-0.750
1737769,0.105,-0.805
1737770,0.105,-0.775
1737771,0.095,-0.760
1737772,0.080,-0.670
1737773,0.095,-0.600
1737774,0.095,-0.645
1737775,0.105,-0.685
1737776,0.075,-0.700
1737777,0.070,-0.695
1737778,0.080,-0.690
1737779,0.095,-0.670
1737780,0.065,-0.690
1737781,0.080,-0.790
1737782,0.090,-0.785
1737783,0.070,-0.670
1737784,0.085,-0.655
1737785,0.095,-0.680
1737786,0.095,-0.670
1737787,0.105,-0.710
1737788,0.065,-0.720
1737789,0.085,-0.655
1737790,0.100,-0.650
1737791,0.110,-0.720
1737792,0.075,-0.710
1737793,0.095,-0.625
1737794,0.095,-0.600
1737795,0.100,-0.700
1737796,0.080,-0.730
1737797,0.080,-0.715
1737798,0.070,-0.710
1737799,0.080,-0.660
1737800,0.095,-0.625
1737801,0.090,-0.560
1737802,0.115,-0.585
1737803,0.120,-0.670
1737804,0.090,-0.685
1737805,0.100,-0.635
1737806,0.080,-0.565
1737807,0.085,-0.570
1737808,0.085,-0.640
1737809,0.085,-0.680
1737810,0.100,-0.630
1737811,0.110,-0.625
1737812,0.120,-0.595
1737813,0.105,-0.595
1737814,0.110,-0.680
1737815,0.110,-0.705
1737816,0.100,-0.695
1737817,0.105,-0.650
1737818,0.105,-0.640
1737819,0.095,-0.600
1737820,0.090,-0.515
1737821,0.120,-0.445
1737822,0.115,-0.570
1737823,0.095,-0.705
1737824,0.105,-0.750
1737825,0.090,-0.765
1737826,0.075,-0.725
1737827,0.065,-0.660
1737828,0.060,-0.550
1737829,0.050,-0.500
1737830,0.065,-0.560
1737831,0.080,-0.625
1737832,0.075,-0.640
1737833,0.080,-0.625
1737834,0.080,-0.580
1737835,0.090,-0.515
1737836,0.085,-0.525
1737837,0.085,-0.500
1737838,0.110,-0.410
1737839,0.085,-0.290
1737840,0.110,-0.205
1737841,0.070,-0.335
1737842,0.110,-0.565
1737843,0.100,-0.620
1737844,0.105,-0.575
1737845,0.110,-0.475
1737846,0.105,-0.395
1737847,0.105,-0.345
1737848,0.115,-0.300
1737849,0.125,-0.265
1737850,0.110,-0.150
1737851,0.100,-0.110
1737852,0.115,-0.175
1737853,0.110,-0.200
1737854,0.110,-0.160
1737855,0.140,-0.090
1737856,0.145,-0.045
1737857,0.145,-0.020
1737858,0.140,-0.050
1737859,0.195,-0.055
1737860,0.225,-0.025
1737861,0.235,0.040
1737862,0.245,0.110
1737863,0.315,0.105
1737864,0.340,0.045
1737865,0.365,0.010
1737866,0.350,0.015
1737867,0.335,-0.010
1737868,0.275,0.000
1737869,0.240,0.020
1737870,0.215,-0.005
1737871,0.230,0.005
1737872,0.205,0.005
1737873,0.165,0.010
1737874,0.115,0.000
1737875,0.095,-0.030
1737876,0.100,-0.100
1737877,0.110,-0.150
1737878,0.105,-0.185
1737879,0.085,-0.175
1737880,0.085,-0.175
1737881,0.090,-0.135
1737882,0.090,-0.070
1737883,0.085,-0.010
1737884,0.075,-0.060
1737885,0.070,-0.110
1737886,0.085,-0.055
1737887,0.080,-0.080
1737888,0.065,-0.090
1737889,0.055,-0.135
1737890,0.065,-0.150
1737891,0.075,-0.175
1737892,0.095,-0.195
1737893,0.115,-0.185
1737894,0.090,-0.080
1737895,0.105,0.005
1737896,0.080,0.025
1737897,0.085,-0.060
1737898,0.085,-0.010
1737899,0.125,0.185
1737900,0.140,0.470
1737901,0.230,0.880
1737902,0.185,1.140
1737903,-0.020,1.310
1737904,-0.360,1.500
1737905,-0.935,1.650
1737906,-1.700,1.660
1737907,-2.310,1.665
1737908,-2.760,1.640
1737909,-2.920,1.635
1737910,-2.930,1.650
1737911,-2.845,1.600
1737912,-2.700,1.510
1737913,-2.535,1.430
1737914,-2.385,1.340
1737915,-2.180,1.255
1737916,-1.965,1.230
1737917,-1.825,1.235
1737918,-1.675,1.340
1737919,-1.510,1.435
1737920,-1.340,1.290
1737921,-1.205,0.940
1737922,-1.040,0.455
1737923,-0.920,0.095
1737924,-0.780,0.085
1737925,-0.635,0.175
1737926,-0.490,-0.100
1737927,-0.375,-0.450
1737928,-0.235,-0.475
1737929,-0.065,-0.290
1737930,0.105,-0.290
1737931,0.285,-0.380
1737932,0.420,-0.385
1737933,0.555,-0.280
1737934,0.610,-0.230
1737935,0.660,-0.240
1737936,0.665,-0.245
1737937,0.685,-0.255
1737938,0.720,-0.220
1737939,0.750,-0.180
1737940,0.760,-0.185
1737941,0.780,-0.195
1737942,0.800,-0.190
1737943,0.830,-0.180
1737944,0.850,-0.180
1737945,0.830,-0.150
1737946,0.860,-0.165
1737947,0.880,-0.170
1737948,0.905,-0.185
1737949,0.905,-0.200
1737950,0.955,-0.175
1737951,0.985,-0.150
1737952,0.985,-0.080
1737953,1.005,-0.040
1737954,1.030,-0.080
1737955,1.065,-0.125
1737956,1.120,-0.075
1737957,1.140,-0.030
1737958,1.155,-0.090
1737959,1.165,-0.140
1737960,1.190,-0.065
1737961,1.240,0.025
1737962,1.275,-0.010
1737963,1.320,-0.070
1737964,1.315,-0.110
1737965,1.315,-0.150
1737966,1.345,-0.130
1737967,1.345,-0.060
1737968,1.335,-0.045
1737969,1.340,-0.055
1737970,1.300,-0.065
1737971,1.270,-0.045
1737972,1.230,-0.055
1737973,1.210,-0.010
1737974,1.165,0.020
1737975,1.135,0.070
1737976,1.065,0.080
1737977,1.015,0.120
1737978,0.960,0.145
1737979,0.895,0.205
1737980,0.860,0.270
1737981,0.795,0.190
1737982,0.740,0.145
1737983,0.685,0.200
1737984,0.640,0.220
1737985,0.575,0.300
1737986,0.550,0.390
1737987,0.510,0.300
1737988,0.445,0.080
1737989,0.415,-0.155
1737990,0.365,-0.190
1737991,0.340,-0.050
1737992,0.325,0.030
1737993,0.310,0.025
1737994,0.310,-0.030
1737995,0.270,-0.065
1737996,0.250,-0.040
1737997,0.250,-0.035
1737998,0.255,0.000
1737999,0.225,0.025
1738000,0.230,0.050
1738001,0.250,0.065
1738002,0.250,0.010
1738003,0.245,-0.045
1738004,0.235,-0.040
1738005,0.270,-0.035
1738006,0.230,-0.020
1738007,0.240,0.035
1738008,0.240,0.075
1738009,0.260,0.040
1738010,0.250,-0.050
1738011,0.245,-0.135
1738012,0.250,-0.075
1738013,0.245,-0.020
1738014,0.260,0.025
1738015,0.270,0.075
1738016,0.260,0.145
1738017,0.245,0.055
1738018,0.260,-0.100
1738019,0.270,-0.245
1738020,0.245,-0.325
1738021,0.230,-0.330
1738022,0.255,-0.300
1738023,0.280,-0.245
1738024,0.270,-0.205
1738025,0.230,-0.175
1738026,0.230,-0.200
1738027,0.210,-0.185
1738028,0.200,-0.160
1738029,0.200,-0.160
1738030,0.185,-0.160
1738031,0.170,-0.175
1738032,0.150,-0.155
1738033,0.160,-0.095
1738034,0.150,-0.130
1738035,0.135,-0.120
1738036,0.155,-0.110
1738037,0.140,-0.120
1738038,0.155,-0.095
1738039,0.120,-0.100
1738040,0.120,-0.090
1738041,0.105,-0.090
1738042,0.095,-0.110
1738043,0.085,-0.145
1738044,0.070,-0.095
1738045,0.055,-0.045
1738046,0.085,-0.065
1738047,0.050,-0.070
1738048,0.035,-0.050
1738049,0.050,0.010
1738050,0.060,0.070
1738051,0.070,0.020
1738052,0.070,0.010
1738053,0.025,0.075
1738054,0.020,0.140
1738055,0.030,0.015
1738056,0.050,-0.125
1738057,0.050,-0.210
1738058,0.040,-0.160
1738059,0.025,-0.100
1738060,0.045,-0.075
1738061,0.040,-0.080
1738062,0.025,-0.130
1738063,0.000,-0.110
1738064,0.000,-0.070
1738065,-0.005,-0.060
1738066,0.005,-0.045
1738067,0.005,-0.010
1738068,0.020,0.055
1738069,0.040,0.120
1738070,0.040,0.270
1738071,0.065,0.330
1738072,0.080,0.350
1738073,0.110,0.340
1738074,0.140,0.180
1738075,0.170,-0.020
1738076,0.220,-0.090
1738077,0.240,-0.050
1738078,0.255,0.035
1738079,0.230,0.115
1738080,0.200,0.140
1738081,0.115,0.170
1738082,0.075,0.140
1738083,0.020,0.015
1738084,0.010,-0.060
1738085,0.000,0.015
1738086,-0.070,0.080
1738087,-0.060,0.040
1738088,-0.060,-0.090
1738089,-0.080,-0.135
1738090,-0.070,-0.140
1738091,-0.055,-0.100
1738092,-0.060,-0.055
1738093,-0.060,-0.050
1738094,-0.075,-0.110
1738095,-0.080,-0.210
1738096,-0.060,-0.200
1738097,-0.080,-0.160
1738098,-0.080,-0.120
1738099,-0.085,-0.080
1738100,-0.090,-0.055
1738101,-0.090,-0.070
1738102,-0.105,-0.075
1738103,-0.095,-0.065
1738104,-0.080,0.005
1738105,-0.080,0.065
1738106,-0.070,0.080
1738107,-0.060,0.015
1738108,-0.095,-0.110
1738109,-0.095,-0.100
1738110,-0.095,0.025
1738111,-0.060,0.235
1738112,-0.040,0.395
1738113,0.015,0.625
1738114,0.080,0.955
1738115,0.045,1.250
1738116,-0.170,1.430
1738117,-0.520,1.500
1738118,-1.080,1.560
1738119,-1.840,1.685
1738120,-2.470,1.805
1738121,-2.930,1.875
1738122,-3.165,1.870
1738123,-3.170,1.820
1738124,-3.085,1.695
1738125,-2.905,1.570
1738126,-2.760,1.485
1738127,-2.630,1.410
1738128,-2.455,1.295
1738129,-2.235,1.225
1738130,-2.050,1.130
1738131,-1.900,1.000
1738132,-1.740,0.930
1738133,-1.575,0.815
1738134,-1.420,0.575
1738135,-1.280,0.180
1738136,-1.145,-0.060
1738137,-0.995,-0.200
1738138,-0.860,-0.330
1738139,-0.715,-0.230
1738140,-0.580,-0.120
1738141,-0.425,-0.200
1738142,-0.245,-0.385
1738143,-0.080,-0.425
1738144,0.075,-0.355
1738145,0.185,-0.225
1738146,0.310,-0.140
1738147,0.350,-0.070
1738148,0.415,-0.065
1738149,0.420,-0.160
1738150,0.460,-0.230
1738151,0.505,-0.255
1738152,0.530,-0.215
1738153,0.500,-0.180
1738154,0.490,-0.120
1738155,0.485,-0.060
1738156,0.520,-0.050
1738157,0.535,-0.070
1738158,0.570,-0.065
1738159,0.575,-0.055
1738160,0.585,-0.015
1738161,0.640,0.000
1738162,0.635,0.025
1738163,0.650,0.055
1738164,0.695,0.055
1738165,0.690,0.060
1738166,0.725,0.050
1738167,0.735,0.065
1738168,0.760,0.005
1738169,0.795,-0.035
1738170,0.840,-0.005
1738171,0.845,0.070
1738172,0.860,0.220
1738173,0.875,0.295
1738174,0.940,0.265
1738175,0.945,0.195
1738176,1.010,0.120
1738177,1.050,0.105
1738178,1.050,0.190
1738179,1.070,0.250
1738180,1.055,0.330
1738181,1.070,0.385
1738182,1.100,0.435
1738183,1.085,0.510
1738184,1.095,0.600
1738185,1.075,0.515
1738186,1.065,0.410
1738187,1.060,0.395
1738188,1.015,0.440
1738189,0.970,0.430
1738190,0.865,0.290
1738191,0.750,0.095
1738192,0.590,-0.030
1738193,0.520,0.040
1738194,0.435,0.110
1738195,0.355,0.065
1738196,0.240,0.010
1738197,0.180,0.030
1738198,0.115,0.045
1738199,0.065,0.025
1738200,-0.010,-0.055
1738201,-0.020,-0.100
1738202,-0.045,-0.130
1738203,-0.070,-0.145
1738204,-0.110,-0.125
1738205,-0.120,-0.145
1738206,-0.165,-0.140
1738207,-0.170,-0.100
1738208,-0.180,-0.115
1738209,-0.170,-0.090
1738210,-0.200,-0.080
1738211,-0.195,-0.070
1738212,-0.195,-0.100
1738213,-0.190,-0.110
1738214,-0.190,-0.155
1738215,-0.180,-0.135
1738216,-0.160,-0.125
1738217,-0.170,-0.155
1738218,-0.190,-0.160
1738219,-0.180,-0.160
1738220,-0.180,-0.155
1738221,-0.170,-0.120
1738222,-0.175,-0.125
1738223,-0.165,-0.045
1738224,-0.150,-0.020
1738225,-0.150,-0.220
1738226,-0.135,-0.385
1738227,-0.160,-0.285
1738228,-0.170,-0.010
1738229,-0.175,0.270
1738230,-0.130,0.545
1738231,-0.050,0.810
1738232,0.005,0.955
1738233,-0.145,0.970
1738234,-0.415,0.970
1738235,-0.925,1.060
1738236,-1.630,1.205
1738237,-2.230,1.270
1738238,-2.700,1.200
1738239,-2.980,1.150
1738240,-2.960,1.055
1738241,-2.850,0.955
1738242,-2.695,0.895
1738243,-2.590,0.895
1738244,-2.440,0.810
1738245,-2.235,0.760
1738246,-2.075,0.755
1738247,-1.915,0.780
1738248,-1.745,0.710
1738249,-1.590,0.465
1738250,-1.465,0.090
1738251,-1.360,-0.205
1738252,-1.245,-0.415
1738253,-1.140,-0.490
1738254,-0.990,-0.455
1738255,-0.865,-0.475
1738256,-0.745,-0.480
1738257,-0.560,-0.400
1738258,-0.400,-0.375
1738259,-0.205,-0.345
1738260,-0.030,-0.300
1738261,0.100,-0.290
1738262,0.170,-0.230
1738263,0.230,-0.225
1738264,0.270,-0.220
1738265,0.285,-0.240
1738266,0.335,-0.230
1738267,0.355,-0.185
1738268,0.360,-0.180
1738269,0.370,-0.120
1738270,0.415,-0.090
1738271,0.420,-0.095
1738272,0.440,-0.205
1738273,0.435,-0.220
1738274,0.460,-0.200
1738275,0.470,-0.175
1738276,0.515,-0.140
1738277,0.510,-0.075
1738278,0.550,-0.065
1738279,0.585,-0.090
1738280,0.590,-0.090
1738281,0.610,-0.080
1738282,0.620,-0.115
1738283,0.645,-0.140
1738284,0.670,-0.140
1738285,0.705,-0.095
1738286,0.715,-0.045
1738287,0.700,-0.050
1738288,0.740,-0.065
1738289,0.725,0.000
1738290,0.750,0.065
1738291,0.770,0.040
1738292,0.775,-0.190
1738293,0.785,-0.315
1738294,0.755,-0.220
1738295,0.755,-0.155
1738296,0.730,-0.160
1738297,0.690,-0.125
1738298,0.680,-0.060
1738299,0.625,-0.010
1738300,0.585,0.025
1738301,0.540,0.040
1738302,0.500,0.070
1738303,0.475,0.095
1738304,0.415,0.105
1738305,0.370,0.065
1738306,0.325,0.020
1738307,0.270,0.035
1738308,0.220,0.035
1738309,0.185,0.060
1738310,0.150,0.040
1738311,0.120,0.010
1738312,0.065,-0.015
1738313,0.035,0.010
1738314,-0.005,0.000
1738315,0.005,0.010
1738316,-0.030,0.030
1738317,-0.050,0.055
1738318,-0.050,0.040
1738319,-0.060,-0.015
1738320,-0.060,-0.080
1738321,-0.080,-0.085
1738322,-0.070,-0.075
1738323,-0.080,-0.080
1738324,-0.075,-0.150
1738325,-0.105,-0.120
1738326,-0.150,-0.055
1738327,-0.120,-0.010
1738328,-0.120,-0.050
1738329,-0.125,-0.095
1738330,-0.125,-0.125
1738331,-0.130,-0.090
1738332,-0.140,-0.070
1738333,-0.140,-0.090
1738334,-0.145,-0.065
1738335,-0.155,-0.045
1738336,-0.125,-0.050
1738337,-0.150,-0.040
1738338,-0.130,-0.025
1738339,-0.140,0.000
1738340,-0.150,-0.025
1738341,-0.145,-0.050
1738342,-0.140,-0.035
1738343,-0.160,0.000
1738344,-0.155,0.010
1738345,-0.145,0.030
1738346,-0.140,0.035
1738347,-0.140,0.060
1738348,-0.130,0.040
1738349,-0.140,0.085
1738350,-0.130,0.105
1738351,-0.120,0.005
1738352,-0.140,-0.045
1738353,-0.145,0.050
1738354,-0.150,0.125
1738355,-0.125,0.035
1738356,-0.125,-0.120
1738357,-0.145,-0.160
1738358,-0.120,-0.070
1738359,-0.105,-0.020
1738360,-0.110,-0.015
1738361,-0.120,-0.040
1738362,-0.110,-0.050
1738363,-0.130,0.000
1738364,-0.120,0.005
1738365,-0.120,0.055
1738366,-0.120,0.045
1738367,-0.115,0.080
1738368,-0.130,0.065
1738369,-0.120,0.005
1738370,-0.140,0.020
1738371,-0.120,0.050
1738372,-0.130,0.080
1738373,-0.120,0.065
1738374,-0.140,-0.030
1738375,-0.110,-0.030
1738376,-0.140,0.075
1738377,-0.160,0.210
1738378,-0.155,0.270
1738379,-0.160,0.090
1738380,-0.155,-0.050
1738381,-0.160,0.100
1738382,-0.175,0.170
1738383,-0.150,-0.050
1738384,-0.135,-0.290
1738385,-0.160,-0.235
1738386,-0.160,-0.100
1738387,-0.145,0.000
1738388,-0.120,-0.025
1738389,-0.110,-0.075
1738390,-0.145,-0.040
1738391,-0.180,0.010
1738392,-0.145,0.070
1738393,-0.160,0.100
1738394,-0.155,0.115
1738395,-0.145,0.080
1738396,-0.160,0.110
1738397,-0.150,0.135
1738398,-0.150,-0.030
1738399,-0.160,-0.135
1738400,-0.165,-0.045
1738401,-0.160,0.065
1738402,-0.165,0.075
1738403,-0.165,0.035
1738404,-0.135,0.000
1738405,-0.145,-0.045
1738406,-0.140,-0.025
1738407,-0.140,0.060
1738408,-0.140,0.090
1738409,-0.130,0.140
1738410,-0.130,0.065
1738411,-0.125,0.030
1738412,-0.140,0.110
1738413,-0.135,0.095
1738414,-0.105,0.115
1738415,-0.115,0.180
1738416,-0.050,0.165
1738417,-0.045,0.075
1738418,0.005,0.025
1738419,0.020,0.065
1738420,0.060,0.180
1738421,0.110,0.265
1738422,0.105,0.260
1738423,0.110,0.135
1738424,0.110,0.080
1738425,0.080,0.150
1738426,0.020,0.140
1738427,-0.030,0.040
1738428,-0.060,0.010
1738429,-0.080,0.035
1738430,-0.105,0.000
1738431,-0.135,-0.040
1738432,-0.150,-0.065
1738433,-0.165,-0.020
1738434,-0.175,0.000
1738435,-0.145,0.010
1738436,-0.155,0.070
1738437,-0.180,-0.055
1738438,-0.160,-0.210
1738439,-0.145,-0.240
1738440,-0.145,-0.180
1738441,-0.150,-0.085
1738442,-0.150,0.065
1738443,-0.145,0.030
1738444,-0.165,-0.055
1738445,-0.150,-0.105
1738446,-0.160,-0.130
1738447,-0.165,-0.130
1738448,-0.170,0.015
1738449,-0.130,0.045
1738450,-0.140,0.005
1738451,-0.145,-0.110
1738452,-0.135,-0.185
1738453,-0.145,-0.095
1738454,-0.130,-0.030
1738455,-0.125,0.120
1738456,-0.075,0.325
1738457,-0.010,0.645
1738458,0.045,0.955
1738459,-0.065,1.185
1738460,-0.320,1.295
1738461,-0.805,1.360
1738462,-1.585,1.470
1738463,-2.355,1.645
1738464,-2.895,1.855
1738465,-3.155,1.830
1738466,-3.190,1.620
1738467,-3.110,1.465
1738468,-2.940,1.420
1738469,-2.785,1.345
1738470,-2.655,1.275
1738471,-2.495,1.155
1738472,-2.265,1.110
1738473,-2.105,1.170
1738474,-1.965,1.245
1738475,-1.800,1.285
1738476,-1.630,1.065
1738477,-1.455,0.650
1738478,-1.310,0.195
1738479,-1.175,-0.115
1738480,-1.040,-0.330
1738481,-0.880,-0.455
1738482,-0.755,-0.460
1738483,-0.580,-0.380
1738484,-0.445,-0.325
1738485,-0.235,-0.290
1738486,-0.040,-0.245
1738487,0.130,-0.135
1738488,0.240,-0.085
1738489,0.340,-0.230
1738490,0.395,-0.350
1738491,0.435,-0.360
1738492,0.455,-0.305
1738493,0.495,-0.300
1738494,0.520,-0.320
1738495,0.515,-0.250
1738496,0.555,-0.215
1738497,0.585,-0.240
1738498,0.600,-0.320
1738499,0.610,-0.430
1738500,0.620,-0.480
1738501,0.675,-0.440
1738502,0.660,-0.360
1738503,0.695,-0.295
1738504,0.725,-0.255
1738505,0.745,-0.180
1738506,0.770,-0.125
1738507,0.795,-0.110
1738508,0.830,-0.180
1738509,0.885,-0.260
1738510,0.900,-0.305
1738511,0.925,-0.270
1738512,0.965,-0.225
1738513,1.005,-0.165
1738514,1.035,-0.105
1738515,1.060,-0.090
1738516,1.105,-0.055
1738517,1.160,-0.050
1738518,1.200,-0.035
1738519,1.220,-0.015
1738520,1.220,-0.005
1738521,1.260,0.025
1738522,1.265,0.085
1738523,1.310,0.105
1738524,1.290,0.150
1738525,1.305,0.215
1738526,1.300,0.300
1738527,1.280,0.340
1738528,1.280,0.290
1738529,1.275,0.100
1738530,1.180,-0.080
1738531,1.080,-0.145
1738532,0.945,-0.140
1738533,0.835,-0.045
1738534,0.750,0.045
1738535,0.655,0.095
1738536,0.565,0.120
1738537,0.510,0.145
1738538,0.430,0.050
1738539,0.345,-0.100
1738540,0.270,-0.160
1738541,0.220,-0.160
1738542,0.175,-0.160
1738543,0.170,-0.140
1738544,0.125,-0.130
1738545,0.110,-0.020
1738546,0.065,-0.030
1738547,0.065,-0.135
1738548,0.045,-0.210
1738549,0.055,-0.210
1738550,0.055,-0.155
1738551,0.060,-0.170
1738552,0.055,-0.225
1738553,0.045,-0.175
1738554,0.040,-0.115
1738555,0.035,-0.140
1738556,0.015,-0.180
1738557,0.035,-0.220
1738558,0.035,-0.165
1738559,0.030,-0.055
1738560,0.035,-0.100
1738561,0.050,-0.205
1738562,0.065,-0.320
1738563,0.045,-0.425
1738564,0.040,-0.410
1738565,0.055,-0.345
1738566,0.060,-0.265
1738567,0.055,-0.175
1738568,0.035,-0.045
1738569,0.070,0.175
1738570,0.120,0.300
1738571,0.275,0.515
1738572,0.350,0.765
1738573,0.245,0.780
1738574,-0.195,0.720
1738575,-1.010,0.825
1738576,-1.880,0.965
1738577,-2.495,1.085
1738578,-2.870,1.175
1738579,-3.035,1.375
1738580,-3.005,1.395
1738581,-2.835,1.090
1738582,-2.675,0.940
1738583,-2.555,1.010
1738584,-2.345,1.005
1738585,-2.125,0.890
1738586,-1.965,0.875
1738587,-1.765,0.935
1738588,-1.600,0.780
1738589,-1.425,0.415
1738590,-1.235,0.150
1738591,-1.095,-0.055
1738592,-0.945,-0.255
1738593,-0.765,-0.400
1738594,-0.555,-0.445
1738595,-0.360,-0.430
1738596,-0.170,-0.235
1738597,0.015,-0.150
1738598,0.170,-0.310
1738599,0.305,-0.460
1738600,0.395,-0.455
1738601,0.425,-0.320
1738602,0.460,-0.205
1738603,0.505,-0.280
1738604,0.525,-0.400
1738605,0.550,-0.455
1738606,0.530,-0.425
1738607,0.560,-0.375
1738608,0.585,-0.270
1738609,0.610,-0.210
1738610,0.590,-0.130
1738611,0.620,-0.085
1738612,0.645,-0.150
1738613,0.660,-0.320
1738614,0.690,-0.345
1738615,0.705,-0.275
1738616,0.740,-0.235
1738617,0.755,-0.225
1738618,0.770,-0.210
1738619,0.800,-0.200
1738620,0.820,-0.220
1738621,0.820,-0.220
1738622,0.845,-0.235
1738623,0.870,-0.235
1738624,0.880,-0.240
1738625,0.890,-0.235
1738626,0.930,-0.190
1738627,0.940,-0.140
1738628,0.935,-0.215
1738629,0.930,-0.405
1738630,0.960,-0.475
1738631,0.950,-0.335
1738632,0.935,-0.225
1738633,0.915,-0.185
1738634,0.870,-0.160
1738635,0.870,-0.045
1738636,0.810,0.055
1738637,0.795,-0.035
1738638,0.755,-0.270
1738639,0.680,-0.405
1738640,0.620,-0.330
1738641,0.590,-0.220
1738642,0.525,-0.170
1738643,0.460,-0.150
1738644,0.420,-0.130
1738645,0.380,-0.085
1738646,0.330,-0.115
1738647,0.275,-0.110
1738648,0.255,-0.100
1738649,0.240,-0.090
1738650,0.215,-0.150
1738651,0.170,-0.135
1738652,0.130,-0.130
1738653,0.135,-0.125
1738654,0.090,-0.125
1738655,0.080,-0.110
1738656,0.085,-0.160
1738657,0.080,-0.210
1738658,0.060,-0.200
1738659,0.085,-0.175
1738660,0.085,-0.135
1738661,0.065,-0.120
1738662,0.070,-0.110
1738663,0.045,-0.135
1738664,0.065,-0.165
1738665,0.065,-0.140
1738666,0.055,-0.145
1738667,0.020,-0.210
1738668,0.035,-0.215
1738669,0.035,-0.245
1738670,0.050,-0.235
1738671,0.020,-0.155
1738672,0.020,-0.100
1738673,0.015,-0.085
1738674,0.020,-0.080
1738675,0.040,-0.150
1738676,0.035,-0.185
1738677,0.000,-0.100
1738678,0.000,0.035
1738679,-0.005,0.015
1738680,-0.015,-0.180
1738681,0.010,-0.295
1738682,0.000,-0.265
1738683,-0.020,-0.180
1738684,-0.015,-0.095
1738685,-0.030,-0.085
1738686,-0.055,-0.135
1738687,-0.040,-0.090
1738688,-0.050,-0.130
1738689,-0.050,-0.245
1738690,-0.060,-0.290
1738691,-0.070,-0.245
1738692,-0.055,-0.190
1738693,-0.065,-0.140
1738694,-0.055,-0.140
1738695,-0.080,-0.145
1738696,-0.080,-0.140
1738697,-0.075,-0.080
1738698,-0.085,-0.030
1738699,-0.065,-0.085
1738700,-0.050,-0.170
1738701,-0.060,-0.165
1738702,-0.110,-0.070
1738703,-0.110,0.015
1738704,-0.125,0.075
1738705,-0.115,0.140
1738706,-0.100,0.050
1738707,-0.100,-0.255
1738708,-0.090,-0.410
1738709,-0.095,-0.390
1738710,-0.110,-0.290
1738711,-0.120,-0.195
1738712,-0.110,-0.190
1738713,-0.100,-0.170
1738714,-0.110,-0.210
1738715,-0.120,-0.245
1738716,-0.100,-0.260
1738717,-0.105,-0.255
1738718,-0.085,-0.230
1738719,-0.125,-0.190
1738720,-0.135,-0.170
1738721,-0.130,-0.155
1738722,-0.115,-0.145
1738723,-0.160,-0.135
1738724,-0.160,-0.130
1738725,-0.140,-0.155
1738726,-0.175,-0.240
1738727,-0.145,-0.250
1738728,-0.165,-0.200
1738729,-0.155,-0.135
1738730,-0.185,-0.095
1738731,-0.195,-0.025
1738732,-0.190,0.015
1738733,-0.190,0.020
1738734,-0.225,-0.145
1738735,-0.210,-0.325
1738736,-0.215,-0.345
1738737,-0.200,-0.320
1738738,-0.195,-0.300
1738739,-0.210,-0.315
1738740,-0.210,-0.285
1738741,-0.190,-0.220
1738742,-0.195,-0.190
1738743,-0.200,-0.155
1738744,-0.205,-0.160
1738745,-0.235,-0.190
1738746,-0.210,-0.200
1738747,-0.225,-0.185
1738748,-0.200,-0.130
1738749,-0.195,-0.095
1738750,-0.195,-0.090
1738751,-0.180,-0.080
1738752,-0.170,-0.070
1738753,-0.120,-0.110
1738754,-0.130,-0.090
1738755,-0.090,-0.110
1738756,-0.045,-0.140
1738757,-0.070,-0.070
1738758,-0.070,-0.045
1738759,-0.080,-0.065
1738760,-0.020,-0.085
1738761,-0.040,-0.090
1738762,-0.100,-0.160
1738763,-0.110,-0.270
1738764,-0.145,-0.310
1738765,-0.175,-0.255
1738766,-0.200,-0.270
1738767,-0.230,-0.275
1738768,-0.255,-0.240
1738769,-0.225,-0.255
1738770,-0.230,-0.275
1738771,-0.225,-0.320
1738772,-0.195,-0.285
1738773,-0.220,-0.240
1738774,-0.245,-0.240
1738775,-0.260,-0.235
1738776,-0.245,-0.250
1738777,-0.245,-0.285
1738778,-0.215,-0.255
1738779,-0.240,-0.220
1738780,-0.255,-0.170
1738781,-0.260,-0.165
1738782,-0.245,-0.140
1738783,-0.225,0.005
1738784,-0.220,0.170
1738785,-0.190,0.350
1738786,-0.135,0.685
1738787,-0.115,1.065
1738788,-0.260,1.310
1738789,-0.580,1.390
1738790,-1.085,1.490
1738791,-1.830,1.580
1738792,-2.515,1.780
1738793,-2.995,1.895
1738794,-3.265,1.775
1738795,-3.345,1.575
1738796,-3.250,1.445
1738797,-3.065,1.400
1738798,-2.905,1.330
1738799,-2.740,1.185
1738800,-2.525,1.035
1738801,-2.275,0.875
1738802,-2.115,0.770
1738803,-1.960,0.710
1738804,-1.810,0.675
1738805,-1.640,0.555
1738806,-1.490,0.285
1738807,-1.370,-0.080
1738808,-1.245,-0.300
1738809,-1.100,-0.440
1738810,-0.965,-0.545
1738811,-0.830,-0.545
1738812,-0.695,-0.485
1738813,-0.560,-0.475
1738814,-0.385,-0.415
1738815,-0.225,-0.400
1738816,-0.065,-0.340
1738817,0.070,-0.270
1738818,0.135,-0.200
1738819,0.180,-0.310
1738820,0.220,-0.385
1738821,0.230,-0.355
1738822,0.255,-0.350
1738823,0.285,-0.320
1738824,0.290,-0.270
1738825,0.325,-0.185
1738826,0.345,-0.220
1738827,0.335,-0.255
1738828,0.365,-0.230
1738829,0.380,-0.220
1738830,0.425,-0.255
1738831,0.425,-0.365
1738832,0.465,-0.400
1738833,0.470,-0.375
1738834,0.500,-0.305
1738835,0.540,-0.285
1738836,0.530,-0.270
1738837,0.545,-0.290
1738838,0.600,-0.230
1738839,0.630,-0.170
1738840,0.655,-0.180
1738841,0.670,-0.245
1738842,0.715,-0.280
1738843,0.720,-0.265
1738844,0.755,-0.240
1738845,0.770,-0.210
1738846,0.810,-0.220
1738847,0.795,-0.180
1738848,0.820,-0.115
1738849,0.835,-0.125
1738850,0.835,-0.160
1738851,0.880,-0.165
1738852,0.860,-0.170
1738853,0.855,-0.115
1738854,0.850,0.010
1738855,0.815,0.025
1738856,0.780,-0.075
1738857,0.745,-0.065
1738858,0.700,0.035
1738859,0.665,-0.005
1738860,0.615,-0.035
1738861,0.585,-0.025
1738862,0.520,-0.030
1738863,0.460,0.045
1738864,0.430,0.075
1738865,0.385,-0.020
1738866,0.325,-0.105
1738867,0.295,-0.120
1738868,0.215,-0.085
1738869,0.165,-0.070
1738870,0.145,-0.080
1738871,0.095,-0.085
1738872,0.080,-0.030
1738873,0.040,-0.015
1738874,0.020,-0.075
1738875,0.000,-0.155
1738876,-0.020,-0.215
1738877,-0.055,-0.230
1738878,-0.070,-0.200
1738879,-0.040,-0.170
1738880,-0.080,-0.120
1738881,-0.085,-0.155
1738882,-0.070,-0.175
1738883,-0.050,-0.215
1738884,-0.065,-0.195
1738885,-0.030,-0.170
1738886,-0.065,-0.190
1738887,-0.080,-0.275
1738888,-0.100,-0.305
1738889,-0.085,-0.355
1738890,-0.055,-0.335
1738891,-0.065,-0.305
1738892,-0.070,-0.310
1738893,-0.075,-0.320
1738894,-0.075,-0.390
1738895,-0.085,-0.395
1738896,-0.080,-0.380
1738897,-0.070,-0.345
1738898,-0.080,-0.310
1738899,-0.075,-0.295
1738900,-0.040,-0.375
1738901,-0.065,-0.415
1738902,-0.040,-0.400
1738903,-0.045,-0.420
1738904,-0.030,-0.400
1738905,-0.085,-0.335
1738906,-0.065,-0.295
1738907,-0.040,-0.310
1738908,-0.075,-0.410
1738909,-0.035,-0.435
1738910,-0.060,-0.400
1738911,-0.085,-0.320
1738912,-0.100,-0.315
1738913,-0.095,-0.410
1738914,-0.100,-0.475
1738915,-0.085,-0.425
1738916,-0.095,-0.360
1738917,-0.100,-0.300
1738918,-0.100,-0.280
1738919,-0.115,-0.360
1738920,-0.120,-0.465
1738921,-0.115,-0.465
1738922,-0.115,-0.415
1738923,-0.125,-0.335
1738924,-0.135,-0.265
1738925,-0.150,-0.300
1738926,-0.160,-0.385
1738927,-0.115,-0.390
1738928,-0.155,-0.370
1738929,-0.145,-0.275
1738930,-0.155,-0.270
1738931,-0.145,-0.400
1738932,-0.160,-0.475
1738933,-0.160,-0.380
1738934,-0.185,-0.295
1738935,-0.200,-0.270
1738936,-0.175,-0.240
1738937,-0.205,-0.250
1738938,-0.195,-0.295
1738939,-0.195,-0.355
1738940,-0.210,-0.340
1738941,-0.210,-0.270
1738942,-0.200,-0.230
1738943,-0.175,-0.275
1738944,-0.175,-0.285
1738945,-0.190,-0.335
1738946,-0.190,-0.300
1738947,-0.190,-0.300
1738948,-0.170,-0.315
1738949,-0.175,-0.305
1738950,-0.175,-0.225
1738951,-0.145,-0.105
1738952,-0.125,-0.130
1738953,-0.130,-0.175
1738954,-0.080,-0.180
1738955,-0.040,-0.160
1738956,-0.020,-0.160
1738957,-0.020,-0.165
1738958,-0.030,-0.080
1738959,-0.025,-0.070
1738960,-0.020,-0.145
1738961,0.000,-0.170
1738962,0.015,-0.120
1738963,0.010,-0.145
1738964,0.045,-0.220
1738965,0.075,-0.270
1738966,0.085,-0.310
1738967,0.040,-0.295
1738968,-0.025,-0.235
1738969,-0.065,-0.255
1738970,-0.120,-0.270
1738971,-0.160,-0.295
1738972,-0.185,-0.340
1738973,-0.220,-0.390
1738974,-0.225,-0.415
1738975,-0.215,-0.405
1738976,-0.200,-0.320
1738977,-0.225,-0.280
1738978,-0.245,-0.340
1738979,-0.260,-0.400
1738980,-0.250,-0.385
1738981,-0.245,-0.340
1738982,-0.230,-0.245
1738983,-0.255,-0.130
1738984,-0.250,-0.180
1738985,-0.245,-0.330
1738986,-0.235,-0.425
1738987,-0.260,-0.415
1738988,-0.250,-0.330
1738989,-0.235,-0.325
1738990,-0.245,-0.300
1738991,-0.245,-0.205
1738992,-0.245,-0.035
1738993,-0.240,0.115
1738994,-0.190,0.260
1738995,-0.135,0.545
1738996,-0.115,0.890
1738997,-0.320,1.080
1738998,-0.610,1.160
1738999,-1.125,1.230
1739000,-1.830,1.395
1739001,-2.495,1.620
1739002,-2.980,1.805
1739003,-3.260,1.705
1739004,-3.290,1.420
1739005,-3.220,1.325
1739006,-3.060,1.305
1739007,-2.925,1.190
1739008,-2.775,1.090
1739009,-2.655,1.025
1739010,-2.445,0.930
1739011,-2.265,0.870
1739012,-2.095,0.865
1739013,-1.920,0.865
1739014,-1.780,0.790
1739015,-1.605,0.550
1739016,-1.425,0.155
1739017,-1.305,-0.220
1739018,-1.180,-0.490
1739019,-1.045,-0.595
1739020,-0.875,-0.625
1739021,-0.745,-0.535
1739022,-0.625,-0.485
1739023,-0.465,-0.565
1739024,-0.280,-0.600
1739025,-0.140,-0.600
1739026,0.015,-0.595
1739027,0.145,-0.625
1739028,0.215,-0.610
1739029,0.295,-0.590
1739030,0.340,-0.500
1739031,0.370,-0.495
1739032,0.400,-0.485
1739033,0.415,-0.470
1739034,0.420,-0.525
1739035,0.455,-0.585
1739036,0.460,-0.545
1739037,0.480,-0.470
1739038,0.520,-0.530
1739039,0.525,-0.590
1739040,0.565,-0.585
1739041,0.550,-0.525
1739042,0.575,-0.465
1739043,0.565,-0.480
1739044,0.625,-0.520
1739045,0.660,-0.565
1739046,0.680,-0.615
1739047,0.700,-0.620
1739048,0.720,-0.585
1739049,0.740,-0.510
1739050,0.760,-0.450
1739051,0.820,-0.445
1739052,0.830,-0.515
1739053,0.865,-0.540
1739054,0.860,-0.510
1739055,0.890,-0.520
1739056,0.890,-0.640
1739057,0.920,-0.700
1739058,0.965,-0.625
1739059,0.980,-0.565
1739060,0.985,-0.540
1739061,0.990,-0.515
1739062,1.010,-0.480
1739063,0.995,-0.495
1739064,0.965,-0.585
1739065,0.950,-0.640
1739066,0.950,-0.595
1739067,0.915,-0.480
1739068,0.885,-0.315
1739069,0.855,-0.280
1739070,0.795,-0.340
1739071,0.780,-0.395
1739072,0.705,-0.370
1739073,0.645,-0.315
1739074,0.605,-0.280
1739075,0.515,-0.255
1739076,0.460,-0.185
1739077,0.430,-0.115
1739078,0.365,-0.135
1739079,0.305,-0.150
1739080,0.285,-0.175
1739081,0.255,-0.210
1739082,0.215,-0.250
1739083,0.180,-0.210
1739084,0.190,-0.080
1739085,0.225,0.035
1739086,0.235,0.075
1739087,0.250,0.050
1739088,0.275,-0.005
1739089,0.340,-0.050
1739090,0.345,-0.115
1739091,0.335,-0.230
1739092,0.325,-0.330
1739093,0.315,-0.395
1739094,0.295,-0.360
1739095,0.265,-0.380
1739096,0.190,-0.360
1739097,0.135,-0.405
1739098,0.075,-0.400
1739099,0.030,-0.350
1739100,0.020,-0.460
1739101,-0.015,-0.535
1739102,-0.035,-0.555
1739103,-0.090,-0.545
1739104,-0.095,-0.440
1739105,-0.100,-0.340
1739106,-0.090,-0.375
1739107,-0.110,-0.530
1739108,-0.075,-0.595
1739109,-0.065,-0.630
1739110,-0.070,-0.635
1739111,-0.065,-0.530
1739112,-0.065,-0.380
1739113,-0.075,-0.380
1739114,-0.085,-0.545
1739115,-0.070,-0.665
1739116,-0.065,-0.690
1739117,-0.070,-0.660
1739118,-0.045,-0.605
1739119,-0.065,-0.515
1739120,-0.085,-0.500
1739121,-0.075,-0.530
1739122,-0.065,-0.505
1739123,-0.085,-0.480
1739124,-0.085,-0.435
1739125,-0.110,-0.445
1739126,-0.115,-0.380
1739127,-0.110,-0.290
1739128,-0.090,-0.120
1739129,-0.040,0.115
1739130,0.025,0.460
1739131,0.030,0.690
1739132,-0.155,0.785
1739133,-0.515,0.960
1739134,-1.120,1.270
1739135,-1.910,1.540
1739136,-2.575,1.675
1739137,-2.970,1.725
1739138,-3.155,1.710
1739139,-3.165,1.700
1739140,-3.105,1.660
1739141,-2.950,1.505
1739142,-2.800,1.445
1739143,-2.705,1.425
1739144,-2.570,1.390
1739145,-2.340,1.345
1739146,-2.170,1.200
1739147,-2.015,1.095
1739148,-1.865,1.100
1739149,-1.725,1.020
1739150,-1.550,0.730
1739151,-1.395,0.340
1739152,-1.250,-0.010
1739153,-1.130,-0.210
1739154,-0.965,-0.385
1739155,-0.795,-0.535
1739156,-0.655,-0.670
1739157,-0.475,-0.720
1739158,-0.315,-0.740
1739159,-0.135,-0.650
1739160,0.040,-0.580
1739161,0.140,-0.545
1739162,0.230,-0.555
1739163,0.295,-0.590
1739164,0.345,-0.605
1739165,0.365,-0.615
1739166,0.400,-0.560
1739167,0.430,-0.490
1739168,0.445,-0.485
1739169,0.470,-0.580
1739170,0.480,-0.640
1739171,0.505,-0.580
1739172,0.515,-0.470
1739173,0.550,-0.470
1739174,0.560,-0.565
1739175,0.575,-0.675
1739176,0.600,-0.685
1739177,0.570,-0.625
1739178,0.590,-0.550
1739179,0.650,-0.550
1739180,0.670,-0.560
1739181,0.675,-0.590
1739182,0.690,-0.625
1739183,0.720,-0.610
1739184,0.750,-0.625
1739185,0.805,-0.630
1739186,0.825,-0.685
1739187,0.830,-0.650
1739188,0.850,-0.540
1739189,0.875,-0.475
1739190,0.880,-0.505
1739191,0.905,-0.615
1739192,0.915,-0.655
1739193,0.905,-0.640
1739194,0.915,-0.540
1739195,0.905,-0.475
1739196,0.905,-0.480
1739197,0.875,-0.575
1739198,0.830,-0.580
1739199,0.800,-0.550
1739200,0.775,-0.520
1739201,0.735,-0.460
1739202,0.675,-0.365
1739203,0.620,-0.340
1739204,0.565,-0.350
1739205,0.505,-0.345
1739206,0.450,-0.295
1739207,0.405,-0.335
1739208,0.355,-0.345
1739209,0.320,-0.255
1739210,0.250,-0.215
1739211,0.220,-0.305
1739212,0.165,-0.415
1739213,0.120,-0.420
1739214,0.090,-0.370
1739215,0.060,-0.400
1739216,0.030,-0.440
1739217,0.010,-0.315
1739218,-0.010,-0.185
1739219,-0.015,-0.265
1739220,-0.045,-0.485
1739221,-0.035,-0.620
1739222,-0.045,-0.610
1739223,-0.060,-0.515
1739224,-0.070,-0.415
1739225,-0.080,-0.355
1739226,-0.050,-0.405
1739227,-0.055,-0.465
1739228,-0.095,-0.470
1739229,-0.105,-0.545
1739230,-0.105,-0.585
1739231,-0.125,-0.495
1739232,-0.110,-0.345
1739233,-0.100,-0.415
1739234,-0.130,-0.595
1739235,-0.125,-0.610
1739236,-0.120,-0.540
1739237,-0.120,-0.450
1739238,-0.135,-0.395
1739239,-0.130,-0.350
1739240,-0.145,-0.370
1739241,-0.140,-0.485
1739242,-0.150,-0.535
1739243,-0.180,-0.540
1739244,-0.140,-0.610
1739245,-0.150,-0.610
1739246,-0.160,-0.525
1739247,-0.135,-0.440
1739248,-0.175,-0.440
1739249,-0.160,-0.410
1739250,-0.165,-0.370
1739251,-0.175,-0.395
1739252,-0.165,-0.480
1739253,-0.180,-0.510
1739254,-0.180,-0.490
1739255,-0.160,-0.480
1739256,-0.165,-0.460
1739257,-0.185,-0.370
1739258,-0.180,-0.355
1739259,-0.190,-0.455
1739260,-0.190,-0.440
1739261,-0.200,-0.315
1739262,-0.200,-0.270
1739263,-0.205,-0.305
1739264,-0.195,-0.345
1739265,-0.200,-0.465
1739266,-0.205,-0.555
1739267,-0.245,-0.550
1739268,-0.240,-0.495
1739269,-0.190,-0.395
1739270,-0.190,-0.295
1739271,-0.185,-0.245
1739272,-0.185,-0.300
1739273,-0.195,-0.375
1739274,-0.195,-0.300
1739275,-0.180,-0.220
1739276,-0.185,-0.330
1739277,-0.165,-0.525
1739278,-0.195,-0.580
1739279,-0.190,-0.485
1739280,-0.205,-0.410
1739281,-0.190,-0.400
1739282,-0.195,-0.365
1739283,-0.185,-0.405
1739284,-0.200,-0.460
1739285,-0.215,-0.430
1739286,-0.215,-0.395
1739287,-0.195,-0.405
1739288,-0.205,-0.370
1739289,-0.200,-0.340
1739290,-0.200,-0.350
1739291,-0.190,-0.340
1739292,-0.200,-0.290
1739293,-0.205,-0.215
1739294,-0.205,-0.125
1739295,-0.180,-0.125
1739296,-0.200,-0.315
1739297,-0.195,-0.445
1739298,-0.180,-0.455
1739299,-0.215,-0.415
1739300,-0.210,-0.335
1739301,-0.210,-0.250
1739302,-0.200,-0.185
1739303,-0.185,-0.295
1739304,-0.170,-0.475
1739305,-0.195,-0.450
1739306,-0.160,-0.310
1739307,-0.160,-0.220
1739308,-0.165,-0.200
1739309,-0.150,-0.265
1739310,-0.175,-0.320
1739311,-0.170,-0.420
1739312,-0.150,-0.475
1739313,-0.175,-0.425
1739314,-0.155,-0.320
1739315,-0.155,-0.250
1739316,-0.160,-0.235
1739317,-0.165,-0.270
1739318,-0.180,-0.345
1739319,-0.180,-0.375
1739320,-0.170,-0.340
1739321,-0.180,-0.210
1739322,-0.160,-0.300
1739323,-0.190,-0.390
1739324,-0.195,-0.400
1739325,-0.205,-0.310
1739326,-0.170,-0.260
1739327,-0.165,-0.310
1739328,-0.120,-0.350
1739329,-0.085,-0.320
1739330,-0.050,-0.230
1739331,-0.020,-0.205
1739332,-0.010,-0.320
1739333,0.015,-0.460
1739334,-0.015,-0.420
1739335,-0.090,-0.435
1739336,-0.150,-0.420
1739337,-0.175,-0.395
1739338,-0.170,-0.355
1739339,-0.185,-0.280
1739340,-0.195,-0.335
1739341,-0.195,-0.440
1739342,-0.185,-0.420
1739343,-0.190,-0.330
1739344,-0.195,-0.315
1739345,-0.190,-0.335
1739346,-0.160,-0.300
1739347,-0.180,-0.235
1739348,-0.185,-0.150
1739349,-0.150,-0.040
1739350,-0.155,0.020
1739351,-0.145,0.015
1739352,-0.085,0.110
1739353,0.025,0.365
1739354,-0.005,0.715
1739355,-0.260,0.965
1739356,-0.690,1.160
1739357,-1.475,1.370
1739358,-2.320,1.450
1739359,-2.890,1.510
1739360,-3.215,1.570
1739361,-3.325,1.580
1739362,-3.260,1.630
1739363,-3.110,1.495
1739364,-2.910,1.240
1739365,-2.775,1.110
1739366,-2.605,1.110
1739367,-2.350,1.185
1739368,-2.125,1.130
1739369,-1.965,0.965
1739370,-1.795,0.920
1739371,-1.605,0.895
1739372,-1.455,0.710
1739373,-1.265,0.290
1739374,-1.145,-0.110
1739375,-1.010,-0.305
1739376,-0.880,-0.465
1739377,-0.710,-0.590
1739378,-0.565,-0.625
1739379,-0.390,-0.625
1739380,-0.210,-0.640
1739381,-0.050,-0.590
1739382,0.110,-0.540
1739383,0.250,-0.505
1739384,0.315,-0.450
1739385,0.345,-0.415
1739386,0.400,-0.480
1739387,0.450,-0.535
1739388,0.445,-0.520
1739389,0.460,-0.455
1739390,0.495,-0.335
1739391,0.505,-0.310
1739392,0.550,-0.460
1739393,0.565,-0.640
1739394,0.570,-0.680
1739395,0.590,-0.575
1739396,0.600,-0.445
1739397,0.615,-0.425
1739398,0.635,-0.495
1739399,0.650,-0.550
1739400,0.675,-0.590
1739401,0.710,-0.595
1739402,0.755,-0.505
1739403,0.790,-0.340
1739404,0.825,-0.375
1739405,0.840,-0.560
1739406,0.885,-0.630
1739407,0.885,-0.590
1739408,0.920,-0.580
1739409,0.950,-0.615
1739410,0.985,-0.540
1739411,1.005,-0.505
1739412,1.020,-0.460
1739413,1.050,-0.480
1739414,1.080,-0.475
1739415,1.110,-0.440
1739416,1.100,-0.510
1739417,1.105,-0.580
1739418,1.085,-0.600
1739419,1.070,-0.475
1739420,1.055,-0.320
1739421,1.040,-0.205
1739422,0.970,-0.340
1739423,0.920,-0.515
1739424,0.860,-0.470
1739425,0.815,-0.495
1739426,0.745,-0.500
1739427,0.695,-0.420
1739428,0.635,-0.410
1739429,0.555,-0.380
1739430,0.525,-0.375
1739431,0.455,-0.315
1739432,0.400,-0.280
1739433,0.330,-0.275
1739434,0.275,-0.230
1739435,0.240,-0.200
1739436,0.170,-0.270
1739437,0.130,-0.300
1739438,0.110,-0.310
1739439,0.075,-0.315
1739440,0.030,-0.295
1739441,0.030,-0.360
1739442,-0.005,-0.390
1739443,-0.050,-0.305
1739444,-0.035,-0.170
1739445,-0.030,-0.260
1739446,-0.020,-0.460
1739447,-0.040,-0.510
1739448,-0.065,-0.545
1739449,-0.075,-0.540
1739450,-0.045,-0.430
1739451,-0.045,-0.355
1739452,-0.035,-0.465
1739453,-0.055,-0.590
1739454,-0.040,-0.590
1739455,-0.040,-0.520
1739456,-0.045,-0.430
1739457,-0.035,-0.330
1739458,-0.030,-0.285
1739459,-0.050,-0.290
1739460,-0.025,-0.225
1739461,-0.040,-0.385
1739462,-0.030,-0.710
1739463,-0.030,-0.760
1739464,-0.020,-0.485
1739465,-0.040,-0.390
1739466,-0.020,-0.750
1739467,-0.045,-0.930
1739468,-0.030,-0.860
1739469,-0.045,-0.755
1739470,-0.025,-0.720
1739471,0.000,-0.680
1739472,-0.010,-0.570
1739473,-0.025,-0.585
1739474,-0.040,-0.675
1739475,-0.050,-0.720
1739476,-0.065,-0.690
1739477,-0.080,-0.675
1739478,-0.075,-0.625
1739479,-0.085,-0.615
1739480,-0.080,-0.610
1739481,-0.075,-0.640
1739482,-0.060,-0.625
1739483,-0.100,-0.620
1739484,-0.105,-0.605
1739485,-0.090,-0.595
1739486,-0.125,-0.610
1739487,-0.125,-0.600
1739488,-0.125,-0.560
1739489,-0.140,-0.550
1739490,-0.130,-0.555
1739491,-0.140,-0.520
1739492,-0.135,-0.435
1739493,-0.160,-0.405
1739494,-0.165,-0.475
1739495,-0.145,-0.420
1739496,-0.175,-0.380
1739497,-0.195,-0.515
1739498,-0.160,-0.690
1739499,-0.175,-0.795
1739500,-0.170,-0.785
1739501,-0.180,-0.685
1739502,-0.145,-0.620
1739503,-0.140,-0.620
1739504,-0.140,-0.550
1739505,-0.140,-0.490
1739506,-0.135,-0.455
1739507,-0.150,-0.525
1739508,-0.145,-0.550
1739509,-0.145,-0.640
1739510,-0.145,-0.675
1739511,-0.125,-0.630
1739512,-0.160,-0.600
1739513,-0.170,-0.620
1739514,-0.160,-0.620
1739515,-0.170,-0.585
1739516,-0.150,-0.560
1739517,-0.155,-0.550
1739518,-0.160,-0.525
1739519,-0.150,-0.420
1739520,-0.150,-0.295
1739521,-0.150,-0.380
1739522,-0.165,-0.565
1739523,-0.155,-0.620
1739524,-0.170,-0.525
1739525,-0.165,-0.340
1739526,-0.145,-0.230
1739527,-0.130,-0.350
1739528,-0.110,-0.465
1739529,-0.150,-0.460
1739530,-0.135,-0.485
1739531,-0.055,-0.535
1739532,-0.035,-0.490
1739533,-0.030,-0.275
1739534,0.015,-0.150
1739535,0.095,-0.315
1739536,0.135,-0.500
1739537,0.125,-0.610
1739538,0.140,-0.660
1739539,0.045,-0.620
1739540,-0.045,-0.555
1739541,-0.100,-0.555
1739542,-0.155,-0.555
1739543,-0.135,-0.545
1739544,-0.150,-0.510
1739545,-0.200,-0.555
1739546,-0.205,-0.575
1739547,-0.205,-0.565
1739548,-0.175,-0.520
1739549,-0.170,-0.585
1739550,-0.185,-0.675
1739551,-0.190,-0.690
1739552,-0.180,-0.625
1739553,-0.190,-0.620
1739554,-0.175,-0.645
1739555,-0.165,-0.610
1739556,-0.180,-0.490
1739557,-0.195,-0.420
1739558,-0.180,-0.500
1739559,-0.175,-0.570
1739560,-0.180,-0.610
1739561,-0.180,-0.555
1739562,-0.150,-0.610
1739563,-0.155,-0.670
1739564,-0.160,-0.680
1739565,-0.135,-0.660
1739566,-0.175,-0.560
1739567,-0.145,-0.440
1739568,-0.150,-0.400
1739569,-0.110,-0.300
1739570,-0.040,-0.015
1739571,0.040,0.360
1739572,-0.075,0.560
1739573,-0.360,0.660
1739574,-0.870,0.785
1739575,-1.685,0.980
1739576,-2.475,1.155
1739577,-3.005,1.175
1739578,-3.275,1.145
1739579,-3.320,1.155
1739580,-3.205,1.135
1739581,-3.035,1.050
1739582,-2.865,1.030
1739583,-2.715,0.925
1739584,-2.500,0.775
1739585,-2.285,0.825
1739586,-2.105,0.930
1739587,-1.910,0.880
1739588,-1.745,0.665
1739589,-1.580,0.340
1739590,-1.390,-0.060
1739591,-1.235,-0.330
1739592,-1.090,-0.560
1739593,-0.930,-0.695
1739594,-0.765,-0.775
1739595,-0.595,-0.805
1739596,-0.435,-0.845
1739597,-0.280,-0.835
1739598,-0.120,-0.660
1739599,0.090,-0.605
1739600,0.230,-0.670
1739601,0.295,-0.815
1739602,0.375,-0.865
1739603,0.425,-0.795
1739604,0.455,-0.720
1739605,0.475,-0.575
1739606,0.515,-0.560
1739607,0.530,-0.720
1739608,0.555,-0.820
1739609,0.570,-0.785
1739610,0.580,-0.710
1739611,0.595,-0.655
1739612,0.605,-0.580
1739613,0.630,-0.555
1739614,0.650,-0.590
1739615,0.675,-0.665
1739616,0.695,-0.655
1739617,0.725,-0.665
1739618,0.765,-0.645
1739619,0.785,-0.630
1739620,0.825,-0.630
1739621,0.835,-0.535
1739622,0.880,-0.285
1739623,0.930,-0.415
1739624,0.970,-0.760
1739625,0.960,-0.900
1739626,1.010,-0.795
1739627,1.050,-0.660
1739628,1.080,-0.590
1739629,1.085,-0.515
1739630,1.110,-0.520
1739631,1.125,-0.580
1739632,1.120,-0.650
1739633,1.135,-0.645
1739634,1.125,-0.580
1739635,1.115,-0.565
1739636,1.070,-0.535
1739637,1.015,-0.500
1739638,0.980,-0.375
1739639,0.950,-0.350
1739640,0.875,-0.430
1739641,0.825,-0.375
1739642,0.765,-0.290
1739643,0.710,-0.280
1739644,0.640,-0.230
1739645,0.585,-0.240
1739646,0.525,-0.425
1739647,0.470,-0.590
1739648,0.430,-0.620
1739649,0.340,-0.560
1739650,0.295,-0.505
1739651,0.250,-0.440
1739652,0.190,-0.370
1739653,0.175,-0.465
1739654,0.130,-0.540
1739655,0.080,-0.490
1739656,0.085,-0.395
1739657,0.080,-0.225
1739658,0.045,-0.300
1739659,0.015,-0.480
1739660,-0.005,-0.605
1739661,-0.035,-0.665
1739662,-0.015,-0.605
1739663,-0.005,-0.465
1739664,-0.020,-0.585
1739665,-0.005,-0.815
1739666,-0.010,-0.790
1739667,-0.020,-0.735
1739668,-0.020,-0.730
1739669,-0.015,-0.700
1739670,0.000,-0.635
1739671,-0.025,-0.615
1739672,0.000,-0.660
1739673,-0.010,-0.625
1739674,0.005,-0.540
1739675,-0.010,-0.555
1739676,0.030,-0.610
1739677,0.005,-0.680
1739678,0.005,-0.740
1739679,-0.025,-0.715
1739680,-0.010,-0.670
1739681,0.000,-0.635
1739682,-0.015,-0.650
1739683,0.000,-0.655
1739684,-0.020,-0.650
1739685,-0.035,-0.640
1739686,-0.050,-0.575
1739687,-0.020,-0.595
1739688,-0.035,-0.555
1739689,-0.030,-0.510
1739690,-0.050,-0.575
1739691,-0.030,-0.610
1739692,-0.060,-0.575
1739693,-0.060,-0.565
1739694,-0.065,-0.590
1739695,-0.050,-0.565
1739696,-0.080,-0.585
1739697,-0.080,-0.645
1739698,-0.095,-0.755
1739699,-0.125,-0.805
1739700,-0.105,-0.755
1739701,-0.100,-0.590
1739702,-0.125,-0.540
1739703,-0.105,-0.555
1739704,-0.100,-0.640
1739705,-0.110,-0.690
1739706,-0.130,-0.635
1739707,-0.130,-0.560
1739708,-0.115,-0.470
1739709,-0.120,-0.495
1739710,-0.125,-0.665
1739711,-0.090,-0.650
1739712,-0.130,-0.585
1739713,-0.140,-0.550
1739714,-0.140,-0.565
1739715,-0.140,-0.560
1739716,-0.155,-0.560
1739717,-0.155,-0.550
1739718,-0.150,-0.525
1739719,-0.170,-0.520
1739720,-0.150,-0.465
1739721,-0.160,-0.410
1739722,-0.160,-0.340
1739723,-0.160,-0.320
1739724,-0.100,-0.380
1739725,-0.065,-0.395
1739726,-0.060,-0.375
1739727,-0.005,-0.320
1739728,0.020,-0.120
1739729,0.075,-0.075
1739730,0.090,-0.215
1739731,0.080,-0.325
1739732,0.015,-0.315
1739733,0.000,-0.335
1739734,-0.085,-0.420
1739735,-0.150,-0.520
1739736,-0.155,-0.570
1739737,-0.200,-0.480
1739738,-0.245,-0.340
1739739,-0.260,-0.385
1739740,-0.280,-0.605
1739741,-0.255,-0.690
1739742,-0.255,-0.665
1739743,-0.250,-0.720
1739744,-0.250,-0.810
1739745,-0.280,-0.725
1739746,-0.270,-0.625
1739747,-0.280,-0.585
1739748,-0.290,-0.505
1739749,-0.295,-0.485
1739750,-0.320,-0.575
1739751,-0.320,-0.665
1739752,-0.300,-0.700
1739753,-0.325,-0.640
1739754,-0.325,-0.620
1739755,-0.295,-0.610
1739756,-0.300,-0.575
1739757,-0.315,-0.565
1739758,-0.310,-0.555
1739759,-0.310,-0.545
1739760,-0.300,-0.530
1739761,-0.295,-0.425
1739762,-0.295,-0.180
1739763,-0.270,0.035
1739764,-0.210,0.050
1739765,-0.165,0.200
1739766,-0.105,0.525
1739767,-0.255,0.870
1739768,-0.580,1.095
1739769,-1.140,1.125
1739770,-1.890,1.125
1739771,-2.600,1.270
1739772,-3.085,1.390
1739773,-3.290,1.450
1739774,-3.335,1.305
1739775,-3.240,1.025
1739776,-3.035,0.860
1739777,-2.900,0.945
1739778,-2.750,0.905
1739779,-2.565,0.770
1739780,-2.320,0.675
1739781,-2.175,0.440
1739782,-2.005,0.275
1739783,-1.855,0.300
1739784,-1.685,0.280
1739785,-1.555,0.000
1739786,-1.425,-0.370
1739787,-1.325,-0.620
1739788,-1.170,-0.710
1739789,-1.020,-0.770
1739790,-0.905,-0.760
1739791,-0.725,-0.740
1739792,-0.560,-0.745
1739793,-0.400,-0.745
1739794,-0.255,-0.705
1739795,-0.060,-0.685
1739796,0.065,-0.625
1739797,0.120,-0.600
1739798,0.190,-0.635
1739799,0.200,-0.635
1739800,0.245,-0.610
1739801,0.255,-0.620
1739802,0.265,-0.610
1739803,0.295,-0.655
1739804,0.300,-0.660
1739805,0.315,-0.595
1739806,0.355,-0.560
1739807,0.350,-0.470
1739808,0.375,-0.520
1739809,0.390,-0.640
1739810,0.410,-0.720
1739811,0.430,-0.700
1739812,0.440,-0.640
1739813,0.440,-0.620
1739814,0.465,-0.505
1739815,0.485,-0.370
1739816,0.530,-0.470
1739817,0.520,-0.585
1739818,0.550,-0.575
1739819,0.575,-0.505
1739820,0.600,-0.325
1739821,0.665,-0.395
1739822,0.655,-0.650
1739823,0.655,-0.700
1739824,0.690,-0.430
1739825,0.700,-0.070
1739826,0.705,-0.300
1739827,0.730,-0.675
1739828,0.730,-0.765
1739829,0.725,-0.580
1739830,0.730,-0.340
1739831,0.705,-0.435
1739832,0.735,-0.735
1739833,0.735,-0.795
1739834,0.695,-0.625
1739835,0.655,-0.425
1739836,0.625,-0.300
1739837,0.575,-0.315
1739838,0.515,-0.335
1739839,0.490,-0.265
1739840,0.395,-0.290
1739841,0.360,-0.395
1739842,0.310,-0.405
1739843,0.280,-0.375
1739844,0.210,-0.335
1739845,0.150,-0.310
1739846,0.120,-0.290
1739847,0.060,-0.260
1739848,0.050,-0.245
1739849,-0.010,-0.350
1739850,-0.055,-0.520
1739851,-0.075,-0.625
1739852,-0.100,-0.530
1739853,-0.140,-0.420
1739854,-0.170,-0.395
1739855,-0.135,-0.380
1739856,-0.155,-0.300
1739857,-0.165,-0.220
1739858,-0.165,-0.370
1739859,-0.190,-0.665
1739860,-0.170,-0.805
1739861,-0.175,-0.715
1739862,-0.150,-0.635
1739863,-0.160,-0.520
1739864,-0.160,-0.385
1739865,-0.170,-0.375
1739866,-0.170,-0.520
1739867,-0.170,-0.570
1739868,-0.150,-0.525
1739869,-0.130,-0.515
1739870,-0.160,-0.510
1739871,-0.140,-0.505
1739872,-0.135,-0.470
1739873,-0.125,-0.525
1739874,-0.120,-0.585
1739875,-0.105,-0.575
1739876,-0.115,-0.535
1739877,-0.105,-0.505
1739878,-0.115,-0.450
1739879,-0.125,-0.420
1739880,-0.125,-0.510
1739881,-0.130,-0.585
1739882,-0.105,-0.535
1739883,-0.105,-0.510
1739884,-0.105,-0.480
1739885,-0.130,-0.500
1739886,-0.120,-0.505
1739887,-0.130,-0.530
1739888,-0.145,-0.555
1739889,-0.125,-0.535
1739890,-0.145,-0.510
1739891,-0.170,-0.505
1739892,-0.160,-0.450
1739893,-0.150,-0.455
1739894,-0.135,-0.510
1739895,-0.130,-0.510
1739896,-0.185,-0.400
1739897,-0.170,-0.425
1739898,-0.150,-0.455
1739899,-0.170,-0.475
1739900,-0.145,-0.475
1739901,-0.140,-0.460
1739902,-0.150,-0.450
1739903,-0.145,-0.400
1739904,-0.175,-0.400
1739905,-0.170,-0.445
1739906,-0.155,-0.435
1739907,-0.165,-0.380
1739908,-0.130,-0.330
1739909,-0.145,-0.415
1739910,-0.160,-0.470
1739911,-0.180,-0.390
1739912,-0.175,-0.320
1739913,-0.150,-0.265
1739914,-0.115,-0.235
1739915,-0.045,-0.245
1739916,-0.015,-0.180
1739917,0.010,-0.085
1739918,0.025,-0.040
1739919,0.050,-0.060
1739920,0.075,-0.145
1739921,0.075,-0.110
1739922,0.045,-0.035
1739923,0.015,-0.200
1739924,-0.010,-0.405
1739925,-0.080,-0.440
1739926,-0.090,-0.430
1739927,-0.130,-0.410
1739928,-0.100,-0.350
1739929,-0.160,-0.315
1739930,-0.200,-0.315
1739931,-0.200,-0.375
1739932,-0.210,-0.385
1739933,-0.190,-0.335
1739934,-0.190,-0.345
1739935,-0.205,-0.440
1739936,-0.225,-0.500
1739937,-0.200,-0.465
1739938,-0.205,-0.435
1739939,-0.200,-0.405
1739940,-0.210,-0.420
1739941,-0.210,-0.515
1739942,-0.220,-0.555
1739943,-0.230,-0.540
1739944,-0.235,-0.480
1739945,-0.235,-0.425
1739946,-0.235,-0.360
1739947,-0.210,-0.295
1739948,-0.215,-0.215
1739949,-0.235,-0.295
1739950,-0.225,-0.445
1739951,-0.230,-0.490
1739952,-0.235,-0.415
1739953,-0.220,-0.340
1739954,-0.220,-0.165
1739955,-0.190,0.065
1739956,-0.130,0.295
1739957,-0.050,0.510
1739958,-0.080,0.785
1739959,-0.255,1.025
1739960,-0.570,1.180
1739961,-1.160,1.340
1739962,-1.945,1.445
1739963,-2.650,1.555
1739964,-3.110,1.670
1739965,-3.330,1.715
1739966,-3.345,1.620
1739967,-3.220,1.535
1739968,-3.065,1.385
1739969,-2.900,1.195
1739970,-2.790,1.075
1739971,-2.600,1.040
1739972,-2.395,1.070
1739973,-2.200,1.085
1739974,-2.070,1.055
1739975,-1.885,1.145
1739976,-1.715,1.060
1739977,-1.535,0.635
1739978,-1.390,0.015
1739979,-1.235,-0.400
1739980,-1.100,-0.570
1739981,-0.935,-0.615
1739982,-0.785,-0.500
1739983,-0.600,-0.445
1739984,-0.445,-0.580
1739985,-0.255,-0.670
1739986,-0.095,-0.580
1739987,0.060,-0.440
1739988,0.205,-0.495
1739989,0.305,-0.715
1739990,0.385,-0.755
1739991,0.390,-0.670
1739992,0.445,-0.545
1739993,0.480,-0.395
1739994,0.490,-0.250
1739995,0.550,-0.350
1739996,0.530,-0.525
1739997,0.535,-0.655
1739998,0.545,-0.640
1739999,0.565,-0.570
1740000,0.590,-0.475
1740001,0.585,-0.410
1740002,0.625,-0.445
1740003,0.635,-0.575
1740004,0.645,-0.735
1740005,0.675,-0.775
1740006,0.710,-0.655
1740007,0.720,-0.530
1740008,0.755,-0.490
1740009,0.790,-0.500
1740010,0.800,-0.600
1740011,0.805,-0.685
1740012,0.865,-0.675
1740013,0.875,-0.640
1740014,0.905,-0.635
1740015,0.965,-0.630
1740016,0.975,-0.605
1740017,0.980,-0.610
1740018,1.000,-0.570
1740019,1.020,-0.570
1740020,1.035,-0.570
1740021,1.035,-0.555
1740022,1.040,-0.580
1740023,1.045,-0.520
1740024,1.035,-0.480
1740025,1.005,-0.500
1740026,1.010,-0.545
1740027,0.965,-0.470
1740028,0.920,-0.400
1740029,0.865,-0.355
1740030,0.835,-0.305
1740031,0.770,-0.245
1740032,0.715,-0.220
1740033,0.655,-0.190
1740034,0.630,-0.140
1740035,0.560,-0.090
1740036,0.515,-0.170
1740037,0.450,-0.215
1740038,0.405,-0.125
1740039,0.345,-0.140
1740040,0.300,-0.330
1740041,0.270,-0.455
1740042,0.240,-0.385
1740043,0.185,-0.310
1740044,0.160,-0.260
1740045,0.155,-0.240
1740046,0.115,-0.230
1740047,0.100,-0.275
1740048,0.055,-0.255
1740049,0.090,-0.240
1740050,0.085,-0.240
1740051,0.075,-0.265
1740052,0.055,-0.225
1740053,0.055,-0.180
1740054,0.045,-0.280
1740055,0.015,-0.355
1740056,0.030,-0.360
1740057,0.025,-0.280
1740058,0.050,-0.300
1740059,0.055,-0.335
1740060,0.070,-0.360
1740061,0.060,-0.275
1740062,0.045,-0.095
1740063,0.055,0.025
1740064,0.085,-0.190
1740065,0.075,-0.520
1740066,0.060,-0.615
1740067,0.065,-0.570
1740068,0.085,-0.480
1740069,0.070,-0.400
1740070,0.075,-0.390
1740071,0.070,-0.375
1740072,0.075,-0.400
1740073,0.070,-0.410
1740074,0.080,-0.420
1740075,0.040,-0.440
1740076,0.115,-0.425
1740077,0.080,-0.375
1740078,0.055,-0.345
1740079,0.070,-0.390
1740080,0.050,-0.445
1740081,0.045,-0.400
1740082,0.055,-0.370
1740083,0.040,-0.320
1740084,0.030,-0.335
1740085,0.025,-0.380
1740086,0.005,-0.405
1740087,0.025,-0.360
1740088,0.015,-0.340
1740089,0.005,-0.340
1740090,0.000,-0.255
1740091,0.000,-0.245
1740092,0.000,-0.405
1740093,-0.005,-0.440
1740094,-0.010,-0.365
1740095,-0.010,-0.280
1740096,-0.020,-0.320
1740097,-0.020,-0.385
1740098,0.010,-0.325
1740099,0.000,-0.235
1740100,-0.015,-0.240
1740101,0.005,-0.260
1740102,0.045,-0.110
1740103,0.060,0.035
1740104,0.085,-0.055
1740105,0.125,-0.220
1740106,0.165,-0.240
1740107,0.220,-0.145
1740108,0.220,-0.085
1740109,0.215,-0.145
1740110,0.170,-0.240
1740111,0.130,-0.205
1740112,0.075,-0.170
1740113,0.035,-0.200
1740114,0.010,-0.210
1740115,-0.015,-0.080
1740116,-0.015,-0.030
1740117,-0.055,-0.080
1740118,-0.075,-0.260
1740119,-0.095,-0.490
1740120,-0.130,-0.575
1740121,-0.090,-0.440
1740122,-0.080,-0.280
1740123,-0.090,-0.315
1740124,-0.055,-0.475
1740125,-0.065,-0.570
1740126,-0.075,-0.480
1740127,-0.075,-0.430
1740128,-0.075,-0.440
1740129,-0.060,-0.455
1740130,-0.065,-0.435
1740131,-0.055,-0.415
1740132,-0.050,-0.425
1740133,-0.040,-0.400
1740134,-0.050,-0.315
1740135,-0.070,-0.310
1740136,-0.100,-0.330
1740137,-0.095,-0.305
1740138,-0.085,-0.355
1740139,-0.075,-0.465
1740140,-0.095,-0.490
1740141,-0.095,-0.405
1740142,-0.070,-0.255
1740143,-0.050,-0.020
1740144,-0.040,0.205
1740145,-0.010,0.380
1740146,0.075,0.530
1740147,0.040,0.710
1740148,-0.190,0.825
1740149,-0.615,1.005
1740150,-1.320,1.260
1740151,-2.165,1.490
1740152,-2.780,1.595
1740153,-3.150,1.685
1740154,-3.310,1.660
1740155,-3.320,1.515
1740156,-3.185,1.440
1740157,-2.975,1.475
1740158,-2.810,1.470
1740159,-2.695,1.305
1740160,-2.530,1.090
1740161,-2.305,1.015
1740162,-2.120,1.030
1740163,-1.960,0.975
1740164,-1.805,1.000
1740165,-1.640,1.020
1740166,-1.470,0.835
1740167,-1.320,0.440
1740168,-1.185,0.010
1740169,-1.030,-0.275
1740170,-0.855,-0.405
1740171,-0.705,-0.490
1740172,-0.565,-0.480
1740173,-0.395,-0.540
1740174,-0.240,-0.580
1740175,-0.080,-0.615
1740176,0.085,-0.565
1740177,0.255,-0.355
1740178,0.360,-0.115
1740179,0.455,-0.160
1740180,0.480,-0.475
1740181,0.525,-0.635
1740182,0.545,-0.665
1740183,0.550,-0.690
1740184,0.575,-0.690
1740185,0.630,-0.680
1740186,0.640,-0.600
1740187,0.655,-0.565
1740188,0.670,-0.545
1740189,0.675,-0.505
1740190,0.700,-0.405
1740191,0.710,-0.220
1740192,0.720,-0.150
1740193,0.755,-0.355
1740194,0.770,-0.540
1740195,0.780,-0.615
1740196,0.805,-0.630
1740197,0.830,-0.575
1740198,0.855,-0.535
1740199,0.890,-0.575
1740200,0.930,-0.520
1740201,0.965,-0.405
1740202,0.970,-0.390
1740203,1.000,-0.465
1740204,1.030,-0.550
1740205,1.060,-0.595
1740206,1.085,-0.615
1740207,1.105,-0.590
1740208,1.115,-0.505
1740209,1.130,-0.385
1740210,1.150,-0.325
1740211,1.165,-0.395
1740212,1.165,-0.470
1740213,1.125,-0.490
1740214,1.110,-0.460
1740215,1.095,-0.295
1740216,1.065,-0.185
1740217,1.035,-0.265
1740218,0.980,-0.405
1740219,0.945,-0.420
1740220,0.895,-0.320
1740221,0.825,-0.265
1740222,0.745,-0.250
1740223,0.700,-0.220
1740224,0.650,-0.225
1740225,0.560,-0.145
1740226,0.525,-0.085
1740227,0.455,-0.190
1740228,0.420,-0.245
1740229,0.365,-0.285
1740230,0.305,-0.290
1740231,0.265,-0.255
1740232,0.225,-0.200
1740233,0.200,-0.115
1740234,0.155,-0.005
1740235,0.130,-0.115
1740236,0.120,-0.370
1740237,0.090,-0.540
1740238,0.035,-0.495
1740239,0.035,-0.435
1740240,0.050,-0.305
1740241,0.015,-0.220
1740242,0.035,-0.275
1740243,0.015,-0.375
1740244,0.010,-0.465
1740245,0.015,-0.525
1740246,0.020,-0.475
1740247,-0.005,-0.420
1740248,0.015,-0.345
1740249,0.020,-0.230
1740250,0.000,-0.150
1740251,-0.035,-0.285
1740252,-0.015,-0.505
1740253,0.005,-0.550
1740254,-0.010,-0.445
1740255,-0.015,-0.400
1740256,-0.035,-0.380
1740257,-0.005,-0.410
1740258,-0.010,-0.470
1740259,-0.015,-0.315
1740260,-0.025,0.085
1740261,-0.005,-0.100
1740262,0.000,-0.645
1740263,-0.025,-0.915
1740264,-0.055,-0.860
1740265,-0.065,-0.740
1740266,-0.040,-0.695
1740267,-0.040,-0.640
1740268,-0.040,-0.540
1740269,-0.040,-0.435
1740270,-0.065,-0.380
1740271,-0.055,-0.440
1740272,-0.065,-0.525
1740273,-0.075,-0.555
1740274,-0.070,-0.555
1740275,-0.085,-0.500
1740276,-0.080,-0.420
1740277,-0.115,-0.325
1740278,-0.105,-0.300
1740279,-0.125,-0.425
1740280,-0.120,-0.530
1740281,-0.125,-0.595
1740282,-0.130,-0.605
1740283,-0.125,-0.530
1740284,-0.170,-0.400
1740285,-0.140,-0.210
1740286,-0.150,-0.130
1740287,-0.160,-0.345
1740288,-0.160,-0.575
1740289,-0.185,-0.625
1740290,-0.160,-0.485
1740291,-0.130,-0.295
1740292,-0.100,-0.175
1740293,-0.055,-0.110
1740294,-0.040,-0.175
1740295,-0.010,-0.300
1740296,0.030,-0.350
1740297,0.030,-0.315
1740298,0.045,-0.210
1740299,0.045,-0.170
1740300,-0.005,-0.240
1740301,-0.060,-0.335
1740302,-0.100,-0.315
1740303,-0.165,-0.190
1740304,-0.155,0.000
1740305,-0.205,-0.095
1740306,-0.260,-0.535
1740307,-0.260,-0.800
1740308,-0.315,-0.760
1740309,-0.305,-0.675
1740310,-0.285,-0.580
1740311,-0.270,-0.495
1740312,-0.270,-0.420
1740313,-0.315,-0.400
1740314,-0.315,-0.465
1740315,-0.305,-0.430
1740316,-0.335,-0.435
1740317,-0.320,-0.520
1740318,-0.340,-0.585
1740319,-0.315,-0.555
1740320,-0.305,-0.480
1740321,-0.310,-0.430
1740322,-0.310,-0.290
1740323,-0.290,-0.060
1740324,-0.305,-0.150
1740325,-0.315,-0.530
1740326,-0.345,-0.720
1740327,-0.340,-0.695
1740328,-0.335,-0.600
1740329,-0.320,-0.510
1740330,-0.325,-0.470
1740331,-0.340,-0.435
1740332,-0.345,-0.300
1740333,-0.340,-0.145
1740334,-0.275,0.065
1740335,-0.200,0.420
1740336,-0.175,0.825
1740337,-0.375,1.000
1740338,-0.755,1.120
1740339,-1.330,1.230
1740340,-2.120,1.365
1740341,-2.835,1.565
1740342,-3.305,1.610
1740343,-3.485,1.540
1740344,-3.505,1.675
1740345,-3.390,1.775
1740346,-3.175,1.235
1740347,-3.015,0.620
1740348,-2.865,0.495
1740349,-2.670,0.605
1740350,-2.450,0.650
1740351,-2.275,0.640
1740352,-2.085,0.630
1740353,-1.925,0.615
1740354,-1.770,0.475
1740355,-1.630,0.165
1740356,-1.520,-0.230
1740357,-1.385,-0.425
1740358,-1.245,-0.550
1740359,-1.095,-0.640
1740360,-0.955,-0.640
1740361,-0.800,-0.640
1740362,-0.595,-0.595
1740363,-0.445,-0.560
1740364,-0.285,-0.595
1740365,-0.120,-0.570
1740366,0.005,-0.550
1740367,0.080,-0.525
1740368,0.155,-0.530
1740369,0.175,-0.470
1740370,0.205,-0.410
1740371,0.235,-0.365
1740372,0.250,-0.355
1740373,0.285,-0.455
1740374,0.300,-0.680
1740375,0.300,-0.685
1740376,0.300,-0.535
1740377,0.320,-0.495
1740378,0.340,-0.595
1740379,0.335,-0.630
1740380,0.370,-0.580
1740381,0.400,-0.470
1740382,0.420,-0.420
1740383,0.415,-0.425
1740384,0.450,-0.405
1740385,0.470,-0.410
1740386,0.510,-0.425
1740387,0.545,-0.445
1740388,0.590,-0.500
1740389,0.605,-0.500
1740390,0.615,-0.395
1740391,0.655,-0.345
1740392,0.675,-0.365
1740393,0.690,-0.355
1740394,0.715,-0.335
1740395,0.720,-0.395
1740396,0.740,-0.400
1740397,0.755,-0.360
1740398,0.770,-0.385
1740399,0.775,-0.315
1740400,0.795,-0.280
1740401,0.745,-0.305
1740402,0.760,-0.250
1740403,0.730,-0.110
1740404,0.690,-0.140
1740405,0.620,-0.215
1740406,0.580,-0.150
1740407,0.530,-0.085
1740408,0.475,-0.175
1740409,0.455,-0.215
1740410,0.375,-0.180
1740411,0.315,-0.075
1740412,0.250,-0.045
1740413,0.205,-0.060
1740414,0.165,-0.090
1740415,0.090,-0.170
1740416,0.010,-0.295
1740417,-0.035,-0.345
1740418,-0.040,-0.300
1740419,-0.070,-0.240
1740420,-0.120,-0.230
1740421,-0.160,-0.200
1740422,-0.175,-0.155
1740423,-0.195,-0.195
1740424,-0.220,-0.320
1740425,-0.200,-0.445
1740426,-0.240,-0.440
1740427,-0.225,-0.375
1740428,-0.235,-0.340
1740429,-0.260,-0.370
1740430,-0.260,-0.290
1740431,-0.265,-0.185
1740432,-0.275,-0.240
1740433,-0.280,-0.345
1740434,-0.255,-0.335
1740435,-0.260,-0.300
1740436,-0.270,-0.315
1740437,-0.270,-0.365
1740438,-0.275,-0.425
1740439,-0.265,-0.445
1740440,-0.275,-0.485
1740441,-0.275,-0.455
1740442,-0.280,-0.375
1740443,-0.255,-0.290
1740444,-0.240,-0.365
1740445,-0.255,-0.440
1740446,-0.235,-0.420
1740447,-0.250,-0.455
1740448,-0.270,-0.530
1740449,-0.260,-0.480
1740450,-0.265,-0.390
1740451,-0.280,-0.295
1740452,-0.250,-0.300
1740453,-0.280,-0.435
1740454,-0.290,-0.570
1740455,-0.275,-0.550
1740456,-0.285,-0.470
1740457,-0.285,-0.390
1740458,-0.275,-0.365
1740459,-0.300,-0.375
1740460,-0.315,-0.395
1740461,-0.290,-0.460
1740462,-0.310,-0.475
1740463,-0.320,-0.410
1740464,-0.300,-0.355
1740465,-0.325,-0.305
1740466,-0.330,-0.280
1740467,-0.335,-0.330
1740468,-0.335,-0.435
1740469,-0.340,-0.460
1740470,-0.350,-0.405
1740471,-0.345,-0.365
1740472,-0.345,-0.340
1740473,-0.345,-0.360
1740474,-0.340,-0.370
1740475,-0.330,-0.305
1740476,-0.320,-0.220
1740477,-0.320,-0.180
1740478,-0.290,-0.225
1740479,-0.255,-0.250
1740480,-0.220,-0.245
1740481,-0.185,-0.225
1740482,-0.165,-0.160
1740483,-0.135,-0.075
1740484,-0.115,-0.145
1740485,-0.150,-0.180
1740486,-0.205,-0.070
1740487,-0.265,-0.055
1740488,-0.295,-0.260
1740489,-0.370,-0.405
1740490,-0.345,-0.415
1740491,-0.380,-0.290
1740492,-0.435,-0.275
1740493,-0.465,-0.330
1740494,-0.490,-0.395
1740495,-0.495,-0.400
1740496,-0.480,-0.460
1740497,-0.500,-0.535
1740498,-0.485,-0.530
1740499,-0.515,-0.475
1740500,-0.500,-0.445
1740501,-0.515,-0.425
1740502,-0.515,-0.370
1740503,-0.515,-0.385
1740504,-0.515,-0.490
1740505,-0.530,-0.490
1740506,-0.520,-0.455
1740507,-0.510,-0.460
1740508,-0.520,-0.425
1740509,-0.520,-0.390
1740510,-0.510,-0.330
1740511,-0.495,-0.285
1740512,-0.500,-0.210
1740513,-0.495,-0.310
1740514,-0.500,-0.500
1740515,-0.485,-0.520
1740516,-0.495,-0.395
1740517,-0.480,-0.180
1740518,-0.395,0.140
1740519,-0.285,0.575
1740520,-0.320,0.915
1740521,-0.575,1.085
1740522,-0.925,1.175
1740523,-1.630,1.325
1740524,-2.400,1.510
1740525,-3.045,1.620
1740526,-3.425,1.620
1740527,-3.535,1.610
1740528,-3.480,1.550
1740529,-3.285,1.450
1740530,-3.105,1.310
1740531,-2.975,1.130
1740532,-2.795,0.940
1740533,-2.560,0.885
1740534,-2.415,0.885
1740535,-2.245,0.935
1740536,-2.055,0.985
1740537,-1.885,0.855
1740538,-1.745,0.450
1740539,-1.600,-0.025
1740540,-1.465,-0.305
1740541,-1.285,-0.395
1740542,-1.145,-0.450
1740543,-1.025,-0.555
1740544,-0.875,-0.640
1740545,-0.720,-0.760
1740546,-0.550,-0.800
1740547,-0.350,-0.710
1740548,-0.190,-0.635
1740549,-0.045,-0.585
1740550,0.045,-0.535
1740551,0.110,-0.515
1740552,0.145,-0.530
1740553,0.170,-0.570
1740554,0.175,-0.550
1740555,0.205,-0.500
1740556,0.230,-0.490
1740557,0.230,-0.560
1740558,0.260,-0.560
1740559,0.265,-0.505
1740560,0.280,-0.500
1740561,0.305,-0.520
1740562,0.335,-0.535
1740563,0.355,-0.490
1740564,0.365,-0.460
1740565,0.400,-0.465
1740566,0.420,-0.485
1740567,0.435,-0.470
1740568,0.480,-0.490
1740569,0.500,-0.500
1740570,0.535,-0.460
1740571,0.575,-0.540
1740572,0.610,-0.670
1740573,0.605,-0.660
1740574,0.630,-0.560
1740575,0.670,-0.530
1740576,0.690,-0.585
1740577,0.710,-0.650
1740578,0.760,-0.625
1740579,0.750,-0.580
1740580,0.770,-0.590
1740581,0.760,-0.570
1740582,0.780,-0.535
1740583,0.755,-0.455
1740584,0.740,-0.395
1740585,0.730,-0.330
1740586,0.690,-0.390
1740587,0.650,-0.425
1740588,0.610,-0.380
1740589,0.590,-0.310
1740590,0.510,-0.270
1740591,0.450,-0.220
1740592,0.405,-0.200
1740593,0.340,-0.175
1740594,0.275,-0.150
1740595,0.245,-0.150
1740596,0.175,-0.135
1740597,0.130,-0.100
1740598,0.080,-0.105
1740599,0.035,-0.110
1740600,0.000,-0.170
1740601,0.000,-0.185
1740602,-0.055,-0.250
1740603,-0.080,-0.330
1740604,-0.105,-0.310
1740605,-0.135,-0.180
1740606,-0.130,-0.165
1740607,-0.130,-0.235
1740608,-0.160,-0.280
1740609,-0.145,-0.340
1740610,-0.160,-0.330
1740611,-0.150,-0.310
1740612,-0.170,-0.290
1740613,-0.165,-0.240
1740614,-0.175,-0.255
1740615,-0.160,-0.290
1740616,-0.150,-0.320
1740617,-0.155,-0.320
1740618,-0.135,-0.235
1740619,-0.145,-0.185
1740620,-0.150,-0.240
1740621,-0.160,-0.300
1740622,-0.125,-0.375
1740623,-0.150,-0.380
1740624,-0.140,-0.310
1740625,-0.145,-0.320
1740626,-0.160,-0.410
1740627,-0.135,-0.435
1740628,-0.085,-0.355
1740629,-0.120,-0.355
1740630,-0.145,-0.345
1740631,-0.140,-0.350
1740632,-0.150,-0.375
1740633,-0.135,-0.385
1740634,-0.130,-0.365
1740635,-0.140,-0.320
1740636,-0.150,-0.250
1740637,-0.160,-0.235
1740638,-0.145,-0.300
1740639,-0.160,-0.380
1740640,-0.160,-0.445
1740641,-0.150,-0.410
1740642,-0.175,-0.385
1740643,-0.165,-0.345
1740644,-0.165,-0.325
1740645,-0.180,-0.275
1740646,-0.170,-0.250
1740647,-0.195,-0.215
1740648,-0.210,-0.265
1740649,-0.180,-0.285
1740650,-0.190,-0.220
1740651,-0.180,-0.150
1740652,-0.130,-0.080
1740653,-0.090,-0.125
1740654,-0.060,-0.090
1740655,-0.050,-0.075
1740656,-0.005,-0.050
1740657,0.020,-0.015
1740658,0.015,0.010
1740659,-0.010,0.080
1740660,-0.050,0.000
1740661,-0.085,-0.160
1740662,-0.110,-0.295
1740663,-0.160,-0.320
1740664,-0.185,-0.330
1740665,-0.205,-0.280
1740666,-0.205,-0.205
1740667,-0.255,-0.170
1740668,-0.290,-0.235
1740669,-0.270,-0.325
1740670,-0.275,-0.380
1740671,-0.260,-0.400
1740672,-0.260,-0.355
1740673,-0.270,-0.310
1740674,-0.260,-0.310
1740675,-0.270,-0.300
1740676,-0.280,-0.335
1740677,-0.265,-0.325
1740678,-0.270,-0.330
1740679,-0.260,-0.370
1740680,-0.265,-0.385
1740681,-0.270,-0.340
1740682,-0.275,-0.280
1740683,-0.265,-0.205
1740684,-0.255,-0.180
1740685,-0.275,-0.365
1740686,-0.245,-0.445
1740687,-0.250,-0.340
1740688,-0.250,-0.210
1740689,-0.250,-0.270
1740690,-0.240,-0.380
1740691,-0.240,-0.300
1740692,-0.250,-0.110
1740693,-0.195,0.135
1740694,-0.100,0.485
1740695,-0.090,0.775
1740696,-0.270,0.910
1740697,-0.680,1.050
1740698,-1.375,1.255
1740699,-2.250,1.470
1740700,-2.945,1.550
1740701,-3.355,1.495
1740702,-3.480,1.450
1740703,-3.400,1.490
1740704,-3.240,1.450
1740705,-3.010,1.490
1740706,-2.870,1.455
1740707,-2.685,1.265
1740708,-2.425,1.050
1740709,-2.225,0.980
1740710,-2.080,1.015
1740711,-1.875,1.080
1740712,-1.740,1.060
1740713,-1.530,0.800
1740714,-1.400,0.395
1740715,-1.245,-0.040
1740716,-1.090,-0.375
1740717,-0.915,-0.585
1740718,-0.750,-0.685
1740719,-0.620,-0.670
1740720,-0.460,-0.630
1740721,-0.290,-0.565
1740722,-0.125,-0.505
1740723,0.025,-0.510
1740724,0.180,-0.540
1740725,0.250,-0.470
1740726,0.335,-0.380
1740727,0.345,-0.435
1740728,0.380,-0.535
1740729,0.410,-0.540
1740730,0.445,-0.480
1740731,0.455,-0.380
1740732,0.480,-0.420
1740733,0.480,-0.485
1740734,0.500,-0.525
1740735,0.515,-0.530
1740736,0.540,-0.465
1740737,0.565,-0.430
1740738,0.580,-0.510
1740739,0.600,-0.515
1740740,0.625,-0.470
1740741,0.665,-0.450
1740742,0.710,-0.460
1740743,0.730,-0.480
1740744,0.760,-0.465
1740745,0.795,-0.445
1740746,0.815,-0.425
1740747,0.835,-0.440
1740748,0.865,-0.470
1740749,0.930,-0.440
1740750,0.960,-0.435
1740751,0.940,-0.450
1740752,0.995,-0.480
1740753,1.015,-0.460
1740754,1.040,-0.460
1740755,1.040,-0.465
1740756,1.020,-0.470
1740757,1.020,-0.470
1740758,1.020,-0.480
1740759,0.945,-0.460
1740760,0.915,-0.395
1740761,0.895,-0.320
1740762,0.820,-0.300
1740763,0.760,-0.340
1740764,0.695,-0.315
1740765,0.620,-0.230
1740766,0.585,-0.190
1740767,0.485,-0.180
1740768,0.430,-0.255
1740769,0.370,-0.280
1740770,0.320,-0.280
1740771,0.250,-0.280
1740772,0.175,-0.285
1740773,0.155,-0.255
1740774,0.080,-0.260
1740775,0.075,-0.315
1740776,0.020,-0.370
1740777,-0.005,-0.340
1740778,-0.020,-0.320
1740779,-0.050,-0.320
1740780,-0.070,-0.320
1740781,-0.075,-0.320
1740782,-0.080,-0.320
1740783,-0.095,-0.350
1740784,-0.115,-0.420
1740785,-0.120,-0.430
1740786,-0.130,-0.375
1740787,-0.110,-0.355
1740788,-0.120,-0.310
1740789,-0.140,-0.350
1740790,-0.115,-0.470
1740791,-0.145,-0.525
1740792,-0.140,-0.490
1740793,-0.140,-0.440
1740794,-0.145,-0.460
1740795,-0.115,-0.410
1740796,-0.115,-0.390
1740797,-0.140,-0.455
1740798,-0.140,-0.435
1740799,-0.130,-0.345
1740800,-0.125,-0.385
1740801,-0.135,-0.530
1740802,-0.115,-0.570
1740803,-0.120,-0.650
1740804,-0.140,-0.710
1740805,-0.140,-0.685
1740806,-0.150,-0.620
1740807,-0.150,-0.570
1740808,-0.160,-0.575
1740809,-0.145,-0.595
1740810,-0.160,-0.545
1740811,-0.155,-0.505
1740812,-0.140,-0.500
1740813,-0.180,-0.475
1740814,-0.180,-0.535
1740815,-0.175,-0.550
1740816,-0.160,-0.460
1740817,-0.200,-0.430
1740818,-0.200,-0.520
1740819,-0.195,-0.660
1740820,-0.190,-0.650
1740821,-0.210,-0.565
1740822,-0.215,-0.480
1740823,-0.220,-0.370
1740824,-0.240,-0.305
1740825,-0.230,-0.440
1740826,-0.240,-0.565
1740827,-0.220,-0.515
1740828,-0.240,-0.370
1740829,-0.230,-0.410
1740830,-0.205,-0.585
1740831,-0.170,-0.565
1740832,-0.135,-0.445
1740833,-0.120,-0.370
1740834,-0.050,-0.310
1740835,-0.035,-0.280
1740836,-0.030,-0.270
1740837,-0.025,-0.310
1740838,-0.040,-0.420
1740839,-0.065,-0.490
1740840,-0.125,-0.510
1740841,-0.200,-0.470
1740842,-0.230,-0.365
1740843,-0.265,-0.295
1740844,-0.295,-0.390
1740845,-0.325,-0.570
1740846,-0.365,-0.605
1740847,-0.345,-0.605
1740848,-0.360,-0.600
1740849,-0.330,-0.580
1740850,-0.340,-0.655
1740851,-0.345,-0.760
1740852,-0.365,-0.770
1740853,-0.370,-0.740
1740854,-0.375,-0.685
1740855,-0.375,-0.640
1740856,-0.355,-0.640
1740857,-0.340,-0.640
1740858,-0.355,-0.545
1740859,-0.370,-0.430
1740860,-0.360,-0.520
1740861,-0.365,-0.740
1740862,-0.375,-0.850
1740863,-0.370,-0.745
1740864,-0.380,-0.640
1740865,-0.375,-0.620
1740866,-0.355,-0.605
1740867,-0.370,-0.610
1740868,-0.370,-0.605
1740869,-0.370,-0.490
1740870,-0.375,-0.295
1740871,-0.370,-0.080
1740872,-0.290,0.150
1740873,-0.230,0.370
1740874,-0.310,0.620
1740875,-0.605,0.900
1740876,-1.080,1.215
1740877,-1.820,1.350
1740878,-2.590,1.160
1740879,-3.130,0.980
1740880,-3.455,1.025
1740881,-3.570,1.175
1740882,-3.485,1.305
1740883,-3.325,1.285
1740884,-3.130,0.990
1740885,-2.970,0.670
1740886,-2.820,0.500
1740887,-2.615,0.470
1740888,-2.385,0.405
1740889,-2.245,0.365
1740890,-2.040,0.400
1740891,-1.880,0.430
1740892,-1.750,0.275
1740893,-1.580,-0.045
1740894,-1.465,-0.415
1740895,-1.325,-0.740
1740896,-1.180,-0.995
1740897,-1.040,-1.025
1740898,-0.885,-0.900
1740899,-0.700,-0.890
1740900,-0.545,-0.945
1740901,-0.405,-0.800
1740902,-0.250,-0.585
1740903,-0.100,-0.730
1740904,0.010,-1.010
1740905,0.085,-1.010
1740906,0.120,-0.885
1740907,0.145,-0.725
1740908,0.170,-0.685
1740909,0.195,-0.730
1740910,0.210,-0.825
1740911,0.230,-0.840
1740912,0.225,-0.830
1740913,0.230,-0.825
1740914,0.270,-0.805
1740915,0.290,-0.785
1740916,0.305,-0.750
1740917,0.305,-0.725
1740918,0.315,-0.710
1740919,0.340,-0.710
1740920,0.360,-0.580
1740921,0.375,-0.635
1740922,0.420,-0.880
1740923,0.430,-0.885
1740924,0.460,-0.805
1740925,0.500,-0.800
1740926,0.520,-0.825
1740927,0.570,-0.870
1740928,0.600,-0.890
1740929,0.620,-0.895
1740930,0.635,-0.810
1740931,0.670,-0.720
1740932,0.695,-0.635
1740933,0.695,-0.540
1740934,0.715,-0.500
1740935,0.720,-0.525
1740936,0.740,-0.665
1740937,0.730,-0.805
1740938,0.710,-0.740
1740939,0.710,-0.525
1740940,0.690,-0.350
1740941,0.670,-0.300
1740942,0.630,-0.415
1740943,0.595,-0.570
1740944,0.530,-0.660
1740945,0.470,-0.620
1740946,0.415,-0.550
1740947,0.380,-0.650
1740948,0.320,-0.715
1740949,0.300,-0.555
1740950,0.220,-0.410
1740951,0.170,-0.465
1740952,0.135,-0.585
1740953,0.080,-0.535
1740954,0.010,-0.375
1740955,-0.050,-0.345
1740956,-0.070,-0.540
1740957,-0.120,-0.740
1740958,-0.130,-0.695
1740959,-0.175,-0.610
1740960,-0.165,-0.690
1740961,-0.195,-0.800
1740962,-0.225,-0.815
1740963,-0.235,-0.705
1740964,-0.240,-0.645
1740965,-0.255,-0.675
1740966,-0.230,-0.650
1740967,-0.225,-0.595
1740968,-0.240,-0.680
1740969,-0.215,-0.820
1740970,-0.220,-0.800
1740971,-0.185,-0.520
1740972,-0.195,-0.430
1740973,-0.195,-0.785
1740974,-0.190,-1.040
1740975,-0.200,-0.880
1740976,-0.190,-0.645
1740977,-0.195,-0.690
1740978,-0.175,-0.795
1740979,-0.195,-0.895
1740980,-0.160,-1.000
1740981,-0.170,-0.995
1740982,-0.160,-0.945
1740983,-0.160,-0.855
1740984,-0.155,-0.710
1740985,-0.155,-0.640
1740986,-0.150,-0.680
1740987,-0.165,-0.750
1740988,-0.150,-0.810
1740989,-0.180,-0.885
1740990,-0.170,-1.015
1740991,-0.180,-1.025
1740992,-0.180,-0.835
1740993,-0.180,-0.715
1740994,-0.180,-0.750
1740995,-0.160,-0.860
1740996,-0.195,-0.925
1740997,-0.190,-0.890
1740998,-0.210,-0.900
1740999,-0.200,-0.905
1741000,-0.190,-0.960
1741001,-0.190,-0.915
1741002,-0.215,-0.860
1741003,-0.195,-0.780
1741004,-0.205,-0.780
1741005,-0.230,-0.750
1741006,-0.220,-0.670
1741007,-0.240,-0.710
1741008,-0.255,-0.890
1741009,-0.255,-0.960
1741010,-0.225,-0.930
1741011,-0.205,-0.830
1741012,-0.245,-0.715
1741013,-0.235,-0.615
1741014,-0.260,-0.650
1741015,-0.225,-0.720
1741016,-0.190,-0.680
1741017,-0.165,-0.590
1741018,-0.155,-0.565
1741019,-0.095,-0.600
1741020,-0.070,-0.645
1741021,-0.045,-0.650
1741022,-0.020,-0.690
1741023,-0.050,-0.705
1741024,-0.085,-0.635
1741025,-0.135,-0.565
1741026,-0.185,-0.580
1741027,-0.220,-0.690
1741028,-0.240,-0.775
1741029,-0.250,-0.700
1741030,-0.285,-0.610
1741031,-0.345,-0.640
1741032,-0.335,-0.850
1741033,-0.360,-1.115
1741034,-0.320,-1.175
1741035,-0.315,-1.060
1741036,-0.320,-0.935
1741037,-0.320,-0.890
1741038,-0.330,-0.830
1741039,-0.325,-0.710
1741040,-0.330,-0.670
1741041,-0.340,-0.750
1741042,-0.365,-0.910
1741043,-0.350,-0.955
1741044,-0.320,-0.830
1741045,-0.320,-0.720
1741046,-0.325,-0.735
1741047,-0.285,-0.950
1741048,-0.285,-1.070
1741049,-0.300,-0.995
1741050,-0.295,-0.715
1741051,-0.295,-0.425
1741052,-0.285,-0.520
1741053,-0.290,-0.755
1741054,-0.285,-0.720
1741055,-0.295,-0.720
1741056,-0.290,-0.900
1741057,-0.275,-0.930
1741058,-0.260,-0.585
1741059,-0.155,-0.080
1741060,-0.140,0.350
1741061,-0.295,0.585
1741062,-0.665,0.730
1741063,-1.220,0.895
1741064,-1.970,1.070
1741065,-2.630,1.240
1741066,-3.095,1.265
1741067,-3.330,1.170
1741068,-3.370,1.055
1741069,-3.295,0.985
1741070,-3.105,0.905
1741071,-2.935,0.870
1741072,-2.785,0.765
1741073,-2.650,0.680
1741074,-2.405,0.595
1741075,-2.240,0.575
1741076,-2.090,0.575
1741077,-1.950,0.655
1741078,-1.780,0.625
1741079,-1.610,0.330
1741080,-1.460,-0.165
1741081,-1.345,-0.505
1741082,-1.190,-0.705
1741083,-1.070,-0.870
1741084,-0.895,-1.145
1741085,-0.750,-1.240
1741086,-0.580,-1.245
1741087,-0.400,-1.200
1741088,-0.235,-1.120
1741089,-0.070,-1.010
1741090,0.070,-0.880
1741091,0.185,-0.775
1741092,0.275,-0.780
1741093,0.330,-0.860
1741094,0.365,-0.960
1741095,0.385,-1.070
1741096,0.395,-1.010
1741097,0.450,-1.000
1741098,0.470,-1.035
1741099,0.465,-1.010
1741100,0.535,-0.885
1741101,0.540,-0.800
1741102,0.660,-0.800
1741103,0.760,-0.890
1741104,0.805,-1.080
1741105,0.830,-1.140
1741106,0.815,-1.080
1741107,0.870,-0.960
1741108,0.890,-0.940
1741109,0.930,-0.960
1741110,0.935,-1.010
1741111,0.975,-0.950
1741112,0.980,-0.860
1741113,1.010,-0.895
1741114,1.050,-0.975
1741115,1.080,-1.015
1741116,1.095,-1.085
1741117,1.125,-1.075
1741118,1.150,-1.035
1741119,1.180,-1.040
1741120,1.195,-1.055
1741121,1.225,-1.030
1741122,1.220,-0.955
1741123,1.270,-0.880
1741124,1.345,-0.895
1741125,1.320,-0.945
1741126,1.305,-1.010
1741127,1.305,-0.990
1741128,1.300,-0.870
1741129,1.275,-0.710
1741130,1.245,-0.690
1741131,1.230,-0.780
1741132,1.190,-0.845
1741133,1.140,-0.810
1741134,1.100,-0.695
1741135,1.045,-0.595
1741136,1.005,-0.575
1741137,0.940,-0.605
1741138,0.910,-0.670
1741139,0.865,-0.675
1741140,0.845,-0.640
1741141,0.790,-0.640
1741142,0.760,-0.565
1741143,0.710,-0.505
1741144,0.665,-0.505
1741145,0.655,-0.670
1741146,0.635,-0.780
1741147,0.625,-0.750
1741148,0.605,-0.695
1741149,0.590,-0.595
1741150,0.590,-0.600
1741151,0.575,-0.665
1741152,0.560,-0.695
1741153,0.580,-0.625
1741154,0.585,-0.630
1741155,0.580,-0.695
1741156,0.570,-0.735
1741157,0.590,-0.680
1741158,0.585,-0.565
1741159,0.560,-0.525
1741160,0.565,-0.695
1741161,0.585,-0.875
1741162,0.620,-0.870
1741163,0.615,-0.800
1741164,0.635,-0.745
1741165,0.610,-0.760
1741166,0.625,-0.760
1741167,0.640,-0.690
1741168,0.620,-0.655
1741169,0.625,-0.680
1741170,0.635,-0.745
1741171,0.615,-0.785
1741172,0.605,-0.820
1741173,0.620,-0.855
1741174,0.640,-0.815
1741175,0.625,-0.730
1741176,0.630,-0.665
1741177,0.650,-0.665
1741178,0.635,-0.730
1741179,0.645,-0.780
1741180,0.635,-0.870
1741181,0.630,-0.870
1741182,0.660,-0.845
1741183,0.645,-0.835
1741184,0.620,-0.820
1741185,0.615,-0.800
1741186,0.630,-0.735
1741187,0.630,-0.695
1741188,0.625,-0.705
1741189,0.630,-0.735
1741190,0.680,-0.780
1741191,0.655,-0.760
1741192,0.635,-0.675
1741193,0.625,-0.635
1741194,0.620,-0.640
1741195,0.615,-0.585
1741196,0.620,-0.590
1741197,0.630,-0.615
1741198,0.635,-0.575
1741199,0.665,-0.570
1741200,0.725,-0.540
1741201,0.755,-0.550
1741202,0.765,-0.590
1741203,0.805,-0.620
1741204,0.825,-0.565
1741205,0.835,-0.500
1741206,0.820,-0.475
1741207,0.765,-0.505
1741208,0.715,-0.600
1741209,0.695,-0.645
1741210,0.645,-0.655
1741211,0.655,-0.655
1741212,0.660,-0.620
1741213,0.655,-0.605
1741214,0.590,-0.625
1741215,0.550,-0.680
1741216,0.550,-0.715
1741217,0.565,-0.655
1741218,0.560,-0.665
1741219,0.575,-0.715
1741220,0.550,-0.750
1741221,0.555,-0.820
1741222,0.565,-0.825
1741223,0.545,-0.765
1741224,0.530,-0.710
1741225,0.545,-0.640
1741226,0.560,-0.675
1741227,0.560,-0.800
1741228,0.575,-0.850
1741229,0.570,-0.805
1741230,0.555,-0.775
1741231,0.560,-0.745
1741232,0.555,-0.710
1741233,0.560,-0.685
1741234,0.555,-0.645
1741235,0.560,-0.665
1741236,0.555,-0.685
1741237,0.560,-0.720
1741238,0.565,-0.755
1741239,0.565,-0.675
1741240,0.590,-0.505
1741241,0.625,-0.280
1741242,0.660,-0.035
1741243,0.750,0.290
1741244,0.680,0.525
1741245,0.405,0.620
1741246,-0.085,0.705
1741247,-0.875,0.980
1741248,-1.750,1.255
1741249,-2.430,1.420
1741250,-2.865,1.415
1741251,-2.980,1.265
1741252,-2.820,1.100
1741253,-2.575,1.040
1741254,-2.355,1.030
1741255,-2.195,0.965
1741256,-2.000,0.875
1741257,-1.765,0.800
1741258,-1.560,0.750
1741259,-1.395,0.750
1741260,-1.240,0.820
1741261,-1.075,0.730
1741262,-0.890,0.450
1741263,-0.725,0.035
1741264,-0.585,-0.280
1741265,-0.405,-0.430
1741266,-0.225,-0.655
1741267,-0.055,-0.875
1741268,0.075,-0.960
1741269,0.230,-1.010
1741270,0.410,-1.005
1741271,0.555,-0.935
1741272,0.725,-0.875
1741273,0.880,-0.865
1741274,1.005,-0.820
1741275,1.065,-0.740
1741276,1.130,-0.750
1741277,1.160,-0.845
1741278,1.185,-0.885
1741279,1.240,-0.790
1741280,1.255,-0.755
1741281,1.270,-0.865
1741282,1.295,-0.920
1741283,1.300,-0.855
1741284,1.355,-0.815
1741285,1.360,-0.770
1741286,1.390,-0.670
1741287,1.410,-0.770
1741288,1.435,-0.915
1741289,1.465,-0.895
1741290,1.460,-0.855
1741291,1.500,-0.880
1741292,1.520,-0.890
1741293,1.550,-0.835
1741294,1.555,-0.820
1741295,1.605,-0.790
1741296,1.620,-0.710
1741297,1.660,-0.720
1741298,1.680,-0.805
1741299,1.730,-0.900
1741300,1.750,-0.935
1741301,1.790,-0.890
1741302,1.805,-0.825
1741303,1.810,-0.825
1741304,1.825,-0.785
1741305,1.860,-0.750
1741306,1.875,-0.795
1741307,1.860,-0.815
1741308,1.850,-0.820
1741309,1.850,-0.815
1741310,1.830,-0.825
1741311,1.820,-0.820
1741312,1.790,-0.735
1741313,1.725,-0.715
1741314,1.705,-0.690
1741315,1.610,-0.665
1741316,1.565,-0.645
1741317,1.525,-0.630
1741318,1.455,-0.640
1741319,1.395,-0.585
1741320,1.335,-0.485
1741321,1.275,-0.465
1741322,1.230,-0.435
1741323,1.155,-0.400
1741324,1.120,-0.505
1741325,1.080,-0.560
1741326,1.040,-0.575
1741327,0.995,-0.585
1741328,0.965,-0.575
1741329,0.950,-0.565
1741330,0.930,-0.540
1741331,0.905,-0.545
1741332,0.885,-0.595
1741333,0.865,-0.625
1741334,0.860,-0.525
1741335,0.850,-0.455
1741336,0.850,-0.535
1741337,0.840,-0.675
1741338,0.840,-0.660
1741339,0.840,-0.620
1741340,0.830,-0.585
1741341,0.855,-0.545
1741342,0.845,-0.545
1741343,0.815,-0.615
1741344,0.820,-0.690
1741345,0.835,-0.715
1741346,0.835,-0.730
1741347,0.820,-0.725
1741348,0.835,-0.715
1741349,0.845,-0.680
1741350,0.830,-0.605
1741351,0.845,-0.610
1741352,0.835,-0.675
1741353,0.820,-0.735
1741354,0.855,-0.730
1741355,0.865,-0.625
1741356,0.825,-0.520
1741357,0.845,-0.545
1741358,0.840,-0.695
1741359,0.830,-0.845
1741360,0.815,-0.840
1741361,0.820,-0.750
1741362,0.840,-0.640
1741363,0.825,-0.505
1741364,0.850,-0.500
1741365,0.835,-0.720
1741366,0.820,-0.805
1741367,0.810,-0.705
1741368,0.755,-0.620
1741369,0.715,-0.635
1741370,0.695,-0.705
1741371,0.680,-0.730
1741372,0.645,-0.720
1741373,0.645,-0.685
1741374,0.640,-0.635
1741375,0.620,-0.610
1741376,0.615,-0.640
1741377,0.605,-0.660
1741378,0.620,-0.625
1741379,0.605,-0.580
1741380,0.595,-0.550
1741381,0.580,-0.520
1741382,0.600,-0.475
1741383,0.620,-0.390
1741384,0.655,-0.310
1741385,0.695,-0.280
1741386,0.725,-0.335
1741387,0.740,-0.360
1741388,0.770,-0.370
1741389,0.780,-0.390
1741390,0.775,-0.495
1741391,0.780,-0.475
1741392,0.735,-0.355
1741393,0.675,-0.335
1741394,0.625,-0.475
1741395,0.600,-0.555
1741396,0.580,-0.565
1741397,0.560,-0.480
1741398,0.535,-0.435
1741399,0.520,-0.465
1741400,0.510,-0.615
1741401,0.520,-0.630
1741402,0.515,-0.640
1741403,0.500,-0.605
1741404,0.475,-0.500
1741405,0.495,-0.475
1741406,0.505,-0.600
1741407,0.495,-0.665
1741408,0.480,-0.640
1741409,0.485,-0.585
1741410,0.455,-0.625
1741411,0.485,-0.700
1741412,0.485,-0.740
1741413,0.485,-0.675
1741414,0.455,-0.635
1741415,0.475,-0.600
1741416,0.465,-0.540
1741417,0.445,-0.510
1741418,0.475,-0.510
1741419,0.460,-0.495
1741420,0.480,-0.525
1741421,0.450,-0.590
1741422,0.455,-0.620
1741423,0.435,-0.530
1741424,0.440,-0.330
1741425,0.460,-0.130
1741426,0.535,0.170
1741427,0.620,0.480
1741428,0.540,0.590
1741429,0.260,0.630
1741430,-0.170,0.775
1741431,-0.945,1.030
1741432,-1.810,1.255
1741433,-2.515,1.280
1741434,-2.995,1.260
1741435,-3.125,1.250
1741436,-2.995,1.170
1741437,-2.730,1.130
1741438,-2.465,1.075
1741439,-2.275,1.000
1741440,-2.085,0.805
1741441,-1.850,0.675
1741442,-1.650,0.685
1741443,-1.480,0.715
1741444,-1.315,0.770
1741445,-1.135,0.685
1741446,-0.980,0.375
1741447,-0.840,-0.025
1741448,-0.695,-0.335
1741449,-0.535,-0.530
1741450,-0.350,-0.690
1741451,-0.200,-0.770
1741452,-0.030,-0.780
1741453,0.115,-0.845
1741454,0.280,-0.860
1741455,0.455,-0.845
1741456,0.585,-0.760
1741457,0.735,-0.640
1741458,0.850,-0.605
1741459,0.915,-0.630
1741460,0.970,-0.690
1741461,0.980,-0.740
1741462,0.995,-0.620
1741463,1.025,-0.575
1741464,1.050,-0.700
1741465,1.075,-0.830
1741466,1.080,-0.800
1741467,1.095,-0.730
1741468,1.110,-0.640
1741469,1.115,-0.575
1741470,1.150,-0.585
1741471,1.170,-0.655
1741472,1.180,-0.625
1741473,1.195,-0.630
1741474,1.220,-0.620
1741475,1.260,-0.550
1741476,1.270,-0.520
1741477,1.305,-0.550
1741478,1.345,-0.625
1741479,1.370,-0.630
1741480,1.405,-0.585
1741481,1.440,-0.480
1741482,1.465,-0.285
1741483,1.475,-0.245
1741484,1.500,-0.515
1741485,1.515,-0.660
1741486,1.535,-0.645
1741487,1.585,-0.635
1741488,1.585,-0.650
1741489,1.580,-0.620
1741490,1.590,-0.575
1741491,1.585,-0.505
1741492,1.550,-0.465
1741493,1.525,-0.440
1741494,1.475,-0.390
1741495,1.465,-0.305
1741496,1.385,-0.250
1741497,1.300,-0.320
1741498,1.245,-0.365
1741499,1.195,-0.355
1741500,1.115,-0.350
1741501,1.050,-0.345
1741502,1.025,-0.390
1741503,0.970,-0.400
1741504,0.900,-0.380
1741505,0.840,-0.340
1741506,0.780,-0.320
1741507,0.745,-0.280
1741508,0.695,-0.310
1741509,0.670,-0.380
1741510,0.615,-0.430
1741511,0.575,-0.435
1741512,0.560,-0.495
1741513,0.540,-0.520
1741514,0.535,-0.515
1741515,0.500,-0.480
1741516,0.495,-0.500
1741517,0.490,-0.505
1741518,0.480,-0.485
1741519,0.460,-0.530
1741520,0.475,-0.590
1741521,0.470,-0.620
1741522,0.435,-0.620
1741523,0.430,-0.560
1741524,0.470,-0.520
1741525,0.455,-0.540
1741526,0.450,-0.590
1741527,0.450,-0.585
1741528,0.460,-0.535
1741529,0.435,-0.460
1741530,0.460,-0.425
1741531,0.455,-0.435
1741532,0.465,-0.510
1741533,0.460,-0.650
1741534,0.455,-0.780
1741535,0.445,-0.740
1741536,0.445,-0.690
1741537,0.450,-0.710
1741538,0.475,-0.670
1741539,0.475,-0.620
1741540,0.415,-0.565
1741541,0.430,-0.500
1741542,0.430,-0.550
1741543,0.455,-0.725
1741544,0.420,-0.725
1741545,0.420,-0.690
1741546,0.400,-0.670
1741547,0.420,-0.635
1741548,0.400,-0.650
1741549,0.410,-0.650
1741550,0.395,-0.635
1741551,0.400,-0.590
1741552,0.400,-0.575
1741553,0.390,-0.600
1741554,0.355,-0.575
1741555,0.340,-0.590
1741556,0.345,-0.625
1741557,0.340,-0.580
1741558,0.345,-0.530
1741559,0.345,-0.530
1741560,0.345,-0.580
1741561,0.335,-0.630
1741562,0.340,-0.660
1741563,0.345,-0.610
1741564,0.340,-0.495
1741565,0.345,-0.475
1741566,0.350,-0.480
1741567,0.350,-0.485
1741568,0.390,-0.435
1741569,0.425,-0.425
1741570,0.465,-0.360
1741571,0.460,-0.240
1741572,0.495,-0.235
1741573,0.525,-0.365
1741574,0.550,-0.405
1741575,0.555,-0.400
1741576,0.515,-0.460
1741577,0.470,-0.470
1741578,0.415,-0.440
1741579,0.385,-0.440
1741580,0.370,-0.465
1741581,0.350,-0.430
1741582,0.300,-0.440
1741583,0.280,-0.470
1741584,0.250,-0.460
1741585,0.275,-0.495
1741586,0.290,-0.600
1741587,0.275,-0.665
1741588,0.280,-0.680
1741589,0.240,-0.685
1741590,0.260,-0.640
1741591,0.250,-0.585
1741592,0.265,-0.560
1741593,0.250,-0.550
1741594,0.260,-0.505
1741595,0.250,-0.450
1741596,0.230,-0.505
1741597,0.265,-0.590
1741598,0.245,-0.575
1741599,0.270,-0.605
1741600,0.280,-0.685
1741601,0.295,-0.685
1741602,0.275,-0.640
1741603,0.285,-0.580
1741604,0.255,-0.510
1741605,0.270,-0.380
1741606,0.255,-0.220
1741607,0.275,-0.200
1741608,0.295,-0.150
1741609,0.360,0.105
1741610,0.410,0.520
1741611,0.340,0.850
1741612,0.050,1.015
1741613,-0.420,1.080
1741614,-1.205,1.205
1741615,-2.050,1.400
1741616,-2.660,1.475
1741617,-3.090,1.440
1741618,-3.160,1.420
1741619,-2.995,1.415
1741620,-2.725,1.415
1741621,-2.510,1.275
1741622,-2.325,0.965
1741623,-2.115,0.735
1741624,-1.860,0.590
1741625,-1.680,0.495
1741626,-1.500,0.530
1741627,-1.330,0.535
1741628,-1.160,0.410
1741629,-1.010,0.010
1741630,-0.875,-0.360
1741631,-0.720,-0.520
1741632,-0.570,-0.550
1741633,-0.390,-0.450
1741634,-0.250,-0.545
1741635,-0.065,-0.850
1741636,0.105,-0.970
1741637,0.320,-0.900
1741638,0.495,-0.790
1741639,0.620,-0.730
1741640,0.725,-0.690
1741641,0.795,-0.680
1741642,0.835,-0.640
1741643,0.880,-0.635
1741644,0.910,-0.605
1741645,0.920,-0.580
1741646,0.940,-0.585
1741647,0.970,-0.650
1741648,0.970,-0.740
1741649,0.995,-0.775
1741650,1.025,-0.740
1741651,1.025,-0.685
1741652,1.030,-0.635
1741653,1.055,-0.590
1741654,1.075,-0.535
1741655,1.085,-0.495
1741656,1.110,-0.510
1741657,1.100,-0.580
1741658,1.145,-0.655
1741659,1.175,-0.755
1741660,1.210,-0.740
1741661,1.240,-0.670
1741662,1.255,-0.675
1741663,1.260,-0.620
1741664,1.280,-0.595
1741665,1.310,-0.560
1741666,1.325,-0.525
1741667,1.325,-0.550
1741668,1.335,-0.615
1741669,1.350,-0.625
1741670,1.360,-0.645
1741671,1.405,-0.635
1741672,1.415,-0.515
1741673,1.425,-0.425
1741674,1.445,-0.395
1741675,1.455,-0.380
1741676,1.405,-0.405
1741677,1.380,-0.400
1741678,1.315,-0.320
1741679,1.300,-0.165
1741680,1.260,-0.105
1741681,1.230,-0.145
1741682,1.200,-0.210
1741683,1.165,-0.190
1741684,1.120,-0.140
1741685,1.095,-0.190
1741686,1.085,-0.270
1741687,1.055,-0.355
1741688,0.965,-0.415
1741689,0.875,-0.420
1741690,0.760,-0.405
1741691,0.680,-0.415
1741692,0.635,-0.475
1741693,0.590,-0.495
1741694,0.505,-0.505
1741695,0.465,-0.480
1741696,0.425,-0.500
1741697,0.385,-0.530
1741698,0.380,-0.595
1741699,0.395,-0.625
1741700,0.375,-0.660
1741701,0.390,-0.585
1741702,0.365,-0.500
1741703,0.355,-0.575
1741704,0.345,-0.665
1741705,0.350,-0.630
1741706,0.355,-0.600
1741707,0.355,-0.600
1741708,0.375,-0.600
1741709,0.370,-0.620
1741710,0.370,-0.620
1741711,0.385,-0.615
1741712,0.380,-0.635
1741713,0.350,-0.640
1741714,0.375,-0.635
1741715,0.370,-0.665
1741716,0.360,-0.685
1741717,0.355,-0.680
1741718,0.345,-0.675
1741719,0.360,-0.660
1741720,0.375,-0.600
1741721,0.375,-0.505
1741722,0.345,-0.335
1741723,0.370,-0.105
1741724,0.405,0.140
1741725,0.500,0.405
1741726,0.445,0.590
1741727,0.195,0.765
1741728,-0.335,0.925
1741729,-1.220,1.100
1741730,-2.040,1.270
1741731,-2.655,1.340
1741732,-2.955,1.265
1741733,-2.920,1.220
1741734,-2.755,1.170
1741735,-2.545,1.130
1741736,-2.365,1.100
1741737,-2.205,1.070
1741738,-1.975,1.045
1741739,-1.800,0.925
1741740,-1.635,0.880
1741741,-1.495,0.870
1741742,-1.290,0.625
1741743,-1.120,0.185
1741744,-1.000,-0.245
1741745,-0.875,-0.460
1741746,-0.715,-0.560
1741747,-0.540,-0.600
1741748,-0.335,-0.645
1741749,-0.160,-0.755
1741750,0.045,-0.880
1741751,0.225,-0.905
1741752,0.400,-0.805
1741753,0.525,-0.760
1741754,0.625,-0.790
1741755,0.680,-0.840
1741756,0.720,-0.830
1741757,0.740,-0.770
1741758,0.760,-0.725
1741759,0.800,-0.715
1741760,0.805,-0.620
1741761,0.825,-0.520
1741762,0.830,-0.590
1741763,0.825,-0.795
1741764,0.865,-0.925
1741765,0.870,-0.890
1741766,0.880,-0.790
1741767,0.920,-0.745
1741768,0.940,-0.775
1741769,0.970,-0.745
1741770,0.995,-0.710
1741771,1.010,-0.725
1741772,1.045,-0.720
1741773,1.085,-0.705
1741774,1.100,-0.765
1741775,1.120,-0.775
1741776,1.160,-0.780
1741777,1.160,-0.760
1741778,1.170,-0.800
1741779,1.215,-0.865
1741780,1.245,-0.885
1741781,1.270,-0.880
1741782,1.285,-0.900
1741783,1.275,-0.870
1741784,1.270,-0.815
1741785,1.265,-0.770
1741786,1.255,-0.665
1741787,1.225,-0.655
1741788,1.230,-0.755
1741789,1.205,-0.825
1741790,1.140,-0.835
1741791,1.115,-0.810
1741792,1.080,-0.750
1741793,1.025,-0.690
1741794,0.960,-0.615
1741795,0.905,-0.555
1741796,0.850,-0.545
1741797,0.815,-0.530
1741798,0.760,-0.485
1741799,0.705,-0.480
1741800,0.655,-0.530
1741801,0.625,-0.600
1741802,0.550,-0.605
1741803,0.525,-0.575
1741804,0.490,-0.540
1741805,0.450,-0.530
1741806,0.440,-0.450
1741807,0.405,-0.400
1741808,0.370,-0.465
1741809,0.370,-0.610
1741810,0.360,-0.705
1741811,0.350,-0.635
1741812,0.335,-0.610
1741813,0.355,-0.590
1741814,0.305,-0.645
1741815,0.310,-0.665
1741816,0.285,-0.620
1741817,0.280,-0.535
1741818,0.285,-0.440
1741819,0.285,-0.440
1741820,0.295,-0.465
1741821,0.280,-0.530
1741822,0.280,-0.710
1741823,0.265,-0.780
1741824,0.255,-0.720
1741825,0.260,-0.665
1741826,0.240,-0.625
1741827,0.250,-0.635
1741828,0.250,-0.610
1741829,0.240,-0.580
1741830,0.225,-0.540
1741831,0.210,-0.480
1741832,0.220,-0.440
1741833,0.200,-0.500
1741834,0.195,-0.635
1741835,0.180,-0.690
1741836,0.160,-0.640
1741837,0.180,-0.600
1741838,0.165,-0.615
1741839,0.175,-0.600
1741840,0.140,-0.545
1741841,0.150,-0.485
1741842,0.165,-0.500
1741843,0.165,-0.530
1741844,0.170,-0.525
1741845,0.150,-0.490
1741846,0.155,-0.525
1741847,0.155,-0.550
1741848,0.145,-0.610
1741849,0.150,-0.640
1741850,0.140,-0.605
1741851,0.135,-0.580
1741852,0.135,-0.530
1741853,0.145,-0.540
1741854,0.125,-0.565
1741855,0.160,-0.575
1741856,0.135,-0.555
1741857,0.140,-0.570
1741858,0.110,-0.525
1741859,0.130,-0.445
1741860,0.115,-0.370
1741861,0.105,-0.410
1741862,0.095,-0.530
1741863,0.080,-0.595
1741864,0.100,-0.585
1741865,0.125,-0.570
1741866,0.135,-0.555
1741867,0.110,-0.515
1741868,0.115,-0.575
1741869,0.110,-0.570
1741870,0.120,-0.500
1741871,0.110,-0.465
1741872,0.110,-0.435
1741873,0.140,-0.475
1741874,0.105,-0.515
1741875,0.140,-0.540
1741876,0.100,-0.520
1741877,0.080,-0.430
1741878,0.095,-0.385
1741879,0.075,-0.490
1741880,0.070,-0.595
1741881,0.075,-0.615
1741882,0.080,-0.570
1741883,0.050,-0.540
1741884,0.065,-0.515
1741885,0.040,-0.420
1741886,0.030,-0.390
1741887,0.035,-0.425
1741888,0.035,-0.480
1741889,0.045,-0.535
1741890,0.040,-0.580
1741891,0.025,-0.555
1741892,0.030,-0.520
1741893,0.020,-0.475
1741894,0.015,-0.475
1741895,0.030,-0.460
1741896,0.035,-0.415
1741897,0.030,-0.365
1741898,0.045,-0.305
1741899,0.060,-0.295
1741900,0.115,-0.285
1741901,0.150,-0.290
1741902,0.165,-0.340
1741903,0.190,-0.375
1741904,0.235,-0.335
1741905,0.230,-0.295
1741906,0.255,-0.285
1741907,0.245,-0.295
1741908,0.210,-0.255
1741909,0.165,-0.255
1741910,0.115,-0.295
1741911,0.100,-0.305
1741912,0.075,-0.415
1741913,0.065,-0.520
1741914,0.035,-0.535
1741915,0.020,-0.535
1741916,0.010,-0.555
1741917,0.010,-0.520
1741918,0.015,-0.530
1741919,0.020,-0.575
1741920,0.005,-0.625
1741921,-0.015,-0.575
1741922,-0.010,-0.500
1741923,-0.025,-0.480
1741924,-0.030,-0.510
1741925,-0.015,-0.530
1741926,-0.015,-0.540
1741927,-0.010,-0.510
1741928,0.000,-0.535
1741929,-0.015,-0.545
1741930,0.000,-0.510
1741931,0.000,-0.505
1741932,-0.015,-0.550
1741933,-0.015,-0.570
1741934,-0.020,-0.480
1741935,-0.020,-0.465
1741936,-0.010,-0.450
1741937,-0.015,-0.465
1741938,-0.035,-0.430
1741939,-0.015,-0.310
1741940,0.005,-0.080
1741941,0.030,0.280
1741942,0.090,0.610
1741943,-0.045,0.780
1741944,-0.400,0.840
1741945,-0.995,0.960
1741946,-1.850,1.175
1741947,-2.635,1.375
1741948,-3.200,1.490
1741949,-3.445,1.415
1741950,-3.435,1.335
1741951,-3.305,1.315
1741952,-3.060,1.260
1741953,-2.860,1.145
1741954,-2.695,1.080
1741955,-2.485,0.980
1741956,-2.240,0.925
1741957,-2.085,0.890
1741958,-1.940,0.960
1741959,-1.755,0.995
1741960,-1.590,0.840
1741961,-1.415,0.490
1741962,-1.280,0.120
1741963,-1.125,-0.250
1741964,-0.960,-0.540
1741965,-0.785,-0.725
1741966,-0.635,-0.745
1741967,-0.450,-0.720
1741968,-0.255,-0.780
1741969,-0.115,-0.835
1741970,0.065,-0.795
1741971,0.220,-0.705
1741972,0.335,-0.690
1741973,0.425,-0.720
1741974,0.495,-0.710
1741975,0.555,-0.670
1741976,0.565,-0.580
1741977,0.605,-0.565
1741978,0.640,-0.635
1741979,0.665,-0.675
1741980,0.690,-0.640
1741981,0.670,-0.650
1741982,0.700,-0.700
1741983,0.710,-0.680
1741984,0.715,-0.665
1741985,0.750,-0.640
1741986,0.765,-0.560
1741987,0.790,-0.540
1741988,0.800,-0.615
1741989,0.835,-0.680
1741990,0.875,-0.705
1741991,0.895,-0.710
1741992,0.920,-0.630
1741993,0.960,-0.585
1741994,0.995,-0.610
1741995,1.005,-0.610
1741996,1.060,-0.570
1741997,1.090,-0.540
1741998,1.110,-0.580
1741999,1.140,-0.610
1742000,1.185,-0.550
1742001,1.220,-0.530
1742002,1.260,-0.510
1742003,1.305,-0.480
1742004,1.315,-0.400
1742005,1.345,-0.350
1742006,1.385,-0.385
1742007,1.380,-0.415
1742008,1.400,-0.340
1742009,1.420,-0.330
1742010,1.420,-0.355
1742011,1.420,-0.375
1742012,1.390,-0.355
1742013,1.375,-0.370
1742014,1.335,-0.380
1742015,1.275,-0.455
1742016,1.195,-0.480
1742017,1.065,-0.530
1742018,0.925,-0.505
1742019,0.800,-0.425
1742020,0.715,-0.340
1742021,0.635,-0.380
1742022,0.555,-0.480
1742023,0.495,-0.520
1742024,0.405,-0.500
1742025,0.365,-0.465
1742026,0.295,-0.390
1742027,0.245,-0.420
1742028,0.195,-0.520
1742029,0.160,-0.555
1742030,0.135,-0.510
1742031,0.095,-0.500
1742032,0.065,-0.540
1742033,0.055,-0.575
1742034,0.030,-0.570
1742035,0.035,-0.550
1742036,-0.005,-0.490
1742037,0.000,-0.485
1742038,-0.030,-0.480
1742039,-0.015,-0.470
1742040,-0.015,-0.480
1742041,-0.035,-0.585
1742042,-0.020,-0.630
1742043,-0.010,-0.540
1742044,-0.035,-0.490
1742045,0.000,-0.470
1742046,0.005,-0.500
1742047,0.040,-0.590
1742048,0.040,-0.685
1742049,0.040,-0.710
1742050,0.025,-0.665
1742051,0.040,-0.625
1742052,0.015,-0.610
1742053,0.030,-0.575
1742054,0.020,-0.490
1742055,0.045,-0.410
1742056,0.040,-0.295
1742057,0.095,-0.160
1742058,0.195,0.055
1742059,0.300,0.305
1742060,0.245,0.420
1742061,0.005,0.445
1742062,-0.550,0.455
1742063,-1.380,0.550
1742064,-2.140,0.695
1742065,-2.720,0.815
1742066,-3.040,0.770
1742067,-3.120,0.735
1742068,-3.090,0.750
1742069,-2.880,0.805
1742070,-2.720,0.845
1742071,-2.560,0.775
1742072,-2.415,0.685
1742073,-2.225,0.655
1742074,-2.045,0.735
1742075,-1.910,0.860
1742076,-1.750,0.810
1742077,-1.555,0.465
1742078,-1.400,-0.015
1742079,-1.275,-0.440
1742080,-1.135,-0.640
1742081,-0.995,-0.720
1742082,-0.785,-0.750
1742083,-0.620,-0.770
1742084,-0.390,-0.770
1742085,-0.185,-0.710
1742086,-0.020,-0.680
1742087,0.140,-0.670
1742088,0.275,-0.660
1742089,0.355,-0.580
1742090,0.400,-0.560
1742091,0.420,-0.625
1742092,0.460,-0.675
1742093,0.495,-0.690
1742094,0.505,-0.665
1742095,0.510,-0.650
1742096,0.545,-0.595
1742097,0.570,-0.555
1742098,0.560,-0.560
1742099,0.585,-0.625
1742100,0.590,-0.610
1742101,0.585,-0.500
1742102,0.595,-0.460
1742103,0.630,-0.545
1742104,0.650,-0.615
1742105,0.665,-0.565
1742106,0.690,-0.530
1742107,0.700,-0.530
1742108,0.695,-0.575
1742109,0.730,-0.555
1742110,0.720,-0.515
1742111,0.760,-0.460
1742112,0.830,-0.480
1742113,0.860,-0.500
1742114,0.855,-0.520
1742115,0.850,-0.550
1742116,0.880,-0.570
1742117,0.885,-0.575
1742118,0.920,-0.525
1742119,0.940,-0.495
1742120,0.950,-0.535
1742121,0.975,-0.560
1742122,0.940,-0.615
1742123,0.930,-0.655
1742124,0.915,-0.595
1742125,0.900,-0.485
1742126,0.875,-0.410
1742127,0.855,-0.355
1742128,0.795,-0.385
1742129,0.770,-0.435
1742130,0.735,-0.475
1742131,0.695,-0.495
1742132,0.650,-0.490
1742133,0.605,-0.475
1742134,0.545,-0.475
1742135,0.495,-0.475
1742136,0.460,-0.455
1742137,0.405,-0.415
1742138,0.355,-0.420
1742139,0.300,-0.485
1742140,0.270,-0.485
1742141,0.235,-0.485
1742142,0.210,-0.465
1742143,0.180,-0.415
1742144,0.175,-0.495
1742145,0.150,-0.545
1742146,0.100,-0.545
1742147,0.090,-0.510
1742148,0.070,-0.555
1742149,0.085,-0.525
1742150,0.060,-0.480
1742151,0.055,-0.455
1742152,0.065,-0.405
1742153,0.035,-0.340
1742154,0.035,-0.435
1742155,0.020,-0.600
1742156,0.015,-0.580
1742157,0.025,-0.515
1742158,0.020,-0.475
1742159,0.020,-0.440
1742160,0.015,-0.465
1742161,0.000,-0.550
1742162,-0.010,-0.575
1742163,-0.005,-0.520
1742164,-0.010,-0.470
1742165,-0.010,-0.470
1742166,-0.030,-0.455
1742167,-0.025,-0.440
1742168,-0.010,-0.525
1742169,-0.030,-0.595
1742170,-0.030,-0.560
1742171,-0.035,-0.525
1742172,-0.020,-0.480
1742173,-0.040,-0.405
1742174,-0.040,-0.425
1742175,-0.020,-0.500
1742176,-0.050,-0.540
1742177,-0.050,-0.525
1742178,-0.080,-0.535
1742179,-0.045,-0.560
1742180,-0.060,-0.530
1742181,-0.045,-0.450
1742182,-0.070,-0.415
1742183,-0.080,-0.470
1742184,-0.075,-0.530
1742185,-0.090,-0.515
1742186,-0.080,-0.550
1742187,-0.075,-0.530
1742188,-0.090,-0.460
1742189,-0.130,-0.440
1742190,-0.120,-0.520
1742191,-0.115,-0.545
1742192,-0.145,-0.500
1742193,-0.155,-0.420
1742194,-0.160,-0.435
1742195,-0.175,-0.495
1742196,-0.185,-0.500
1742197,-0.205,-0.460
1742198,-0.200,-0.430
1742199,-0.220,-0.445
1742200,-0.225,-0.465
1742201,-0.220,-0.485
1742202,-0.210,-0.440
1742203,-0.215,-0.380
1742204,-0.215,-0.440
1742205,-0.225,-0.530
1742206,-0.220,-0.555
1742207,-0.225,-0.555
1742208,-0.215,-0.560
1742209,-0.225,-0.540
1742210,-0.240,-0.495
1742211,-0.225,-0.455
1742212,-0.230,-0.445
1742213,-0.225,-0.470
1742214,-0.235,-0.510
1742215,-0.225,-0.500
1742216,-0.235,-0.465
1742217,-0.215,-0.515
1742218,-0.255,-0.540
1742219,-0.250,-0.505
1742220,-0.245,-0.475
1742221,-0.250,-0.505
1742222,-0.240,-0.560
1742223,-0.250,-0.565
1742224,-0.270,-0.530
1742225,-0.265,-0.500
1742226,-0.260,-0.470
1742227,-0.280,-0.510
1742228,-0.270,-0.580
1742229,-0.245,-0.615
1742230,-0.260,-0.590
1742231,-0.260,-0.550
1742232,-0.265,-0.495
1742233,-0.285,-0.460
1742234,-0.285,-0.550
1742235,-0.285,-0.670
1742236,-0.295,-0.640
1742237,-0.350,-0.585
1742238,-0.340,-0.605
1742239,-0.340,-0.665
1742240,-0.330,-0.700
1742241,-0.320,-0.640
1742242,-0.315,-0.555
1742243,-0.265,-0.495
1742244,-0.235,-0.500
1742245,-0.185,-0.550
1742246,-0.170,-0.610
1742247,-0.150,-0.635
1742248,-0.195,-0.630
1742249,-0.225,-0.560
1742250,-0.275,-0.515
1742251,-0.305,-0.520
1742252,-0.300,-0.555
1742253,-0.335,-0.585
1742254,-0.340,-0.620
1742255,-0.340,-0.615
1742256,-0.345,-0.605
1742257,-0.330,-0.610
1742258,-0.345,-0.580
1742259,-0.335,-0.570
1742260,-0.355,-0.540
1742261,-0.350,-0.465
1742262,-0.355,-0.420
1742263,-0.330,-0.390
1742264,-0.350,-0.320
1742265,-0.320,-0.175
1742266,-0.275,0.130
1742267,-0.215,0.605
1742268,-0.320,0.975
1742269,-0.565,1.145
1742270,-0.970,1.220
1742271,-1.645,1.285
1742272,-2.365,1.300
1742273,-2.960,1.340
1742274,-3.390,1.395
1742275,-3.515,1.395
1742276,-3.485,1.365
1742277,-3.335,1.265
1742278,-3.130,1.140
1742279,-2.995,1.045
1742280,-2.835,0.980
1742281,-2.640,0.830
1742282,-2.435,0.700
1742283,-2.260,0.640
1742284,-2.080,0.625
1742285,-1.950,0.660
1742286,-1.800,0.510
1742287,-1.655,0.120
1742288,-1.530,-0.350
1742289,-1.435,-0.675
1742290,-1.315,-0.845
1742291,-1.160,-0.945
1742292,-1.040,-0.930
1742293,-0.885,-0.875
1742294,-0.745,-0.855
1742295,-0.590,-0.780
1742296,-0.415,-0.800
1742297,-0.250,-0.835
1742298,-0.110,-0.825
1742299,-0.015,-0.805
1742300,0.055,-0.755
1742301,0.075,-0.640
1742302,0.090,-0.715
1742303,0.125,-0.845
1742304,0.165,-0.875
1742305,0.175,-0.795
1742306,0.205,-0.735
1742307,0.225,-0.660
1742308,0.240,-0.690
1742309,0.220,-0.740
1742310,0.250,-0.745
1742311,0.270,-0.715
1742312,0.305,-0.695
1742313,0.300,-0.710
1742314,0.325,-0.695
1742315,0.340,-0.695
1742316,0.350,-0.665
1742317,0.365,-0.675
1742318,0.395,-0.680
1742319,0.415,-0.705
1742320,0.405,-0.710
1742321,0.465,-0.710
1742322,0.475,-0.760
1742323,0.510,-0.780
1742324,0.525,-0.755
1742325,0.510,-0.675
1742326,0.545,-0.580
1742327,0.565,-0.635
1742328,0.600,-0.820
1742329,0.620,-0.900
1742330,0.630,-0.900
1742331,0.640,-0.820
1742332,0.645,-0.770
1742333,0.675,-0.720
1742334,0.685,-0.650
1742335,0.665,-0.580
1742336,0.640,-0.525
1742337,0.660,-0.565
1742338,0.620,-0.640
1742339,0.565,-0.650
1742340,0.520,-0.595
1742341,0.470,-0.520
1742342,0.470,-0.500
1742343,0.440,-0.480
1742344,0.415,-0.435
1742345,0.395,-0.410
1742346,0.365,-0.430
1742347,0.320,-0.420
1742348,0.310,-0.405
1742349,0.300,-0.500
1742350,0.245,-0.565
1742351,0.180,-0.580
1742352,0.070,-0.505
1742353,-0.025,-0.535
1742354,-0.115,-0.665
1742355,-0.165,-0.660
1742356,-0.220,-0.610
1742357,-0.265,-0.640
1742358,-0.280,-0.695
1742359,-0.310,-0.700
1742360,-0.320,-0.655
1742361,-0.355,-0.605
1742362,-0.360,-0.545
1742363,-0.360,-0.580
1742364,-0.345,-0.675
1742365,-0.355,-0.755
1742366,-0.350,-0.805
1742367,-0.350,-0.785
1742368,-0.355,-0.785
1742369,-0.360,-0.760
1742370,-0.340,-0.765
1742371,-0.350,-0.740
1742372,-0.350,-0.705
1742373,-0.320,-0.710
1742374,-0.320,-0.760
1742375,-0.345,-0.745
1742376,-0.350,-0.720
1742377,-0.350,-0.730
1742378,-0.320,-0.715
1742379,-0.315,-0.675
1742380,-0.315,-0.565
1742381,-0.310,-0.390
1742382,-0.280,-0.170
1742383,-0.200,0.090
1742384,-0.135,0.440
1742385,-0.175,0.620
1742386,-0.385,0.695
1742387,-0.865,0.815
1742388,-1.640,0.980
1742389,-2.395,1.030
1742390,-2.945,0.940
1742391,-3.275,0.935
1742392,-3.385,0.850
1742393,-3.240,0.695
1742394,-3.045,0.605
1742395,-2.875,0.635
1742396,-2.750,0.560
1742397,-2.560,0.450
1742398,-2.375,0.430
1742399,-2.235,0.425
1742400,-2.055,0.430
1742401,-1.885,0.315
1742402,-1.710,-0.065
1742403,-1.575,-0.485
1742404,-1.455,-0.735
1742405,-1.345,-0.835
1742406,-1.185,-0.865
1742407,-0.985,-0.815
1742408,-0.795,-0.765
1742409,-0.585,-0.750
1742410,-0.400,-0.790
1742411,-0.220,-0.830
1742412,-0.075,-0.820
1742413,0.000,-0.690
1742414,0.090,-0.635
1742415,0.120,-0.745
1742416,0.180,-0.865
1742417,0.210,-0.880
1742418,0.210,-0.840
1742419,0.230,-0.820
1742420,0.260,-0.785
1742421,0.290,-0.760
1742422,0.300,-0.700
1742423,0.300,-0.675
1742424,0.320,-0.665
1742425,0.340,-0.700
1742426,0.360,-0.710
1742427,0.405,-0.670
1742428,0.400,-0.675
1742429,0.420,-0.705
1742430,0.440,-0.710
1742431,0.455,-0.680
1742432,0.480,-0.640
1742433,0.520,-0.655
1742434,0.535,-0.690
1742435,0.570,-0.720
1742436,0.620,-0.715
1742437,0.620,-0.695
1742438,0.640,-0.765
1742439,0.660,-0.880
1742440,0.665,-0.910
1742441,0.715,-0.885
1742442,0.740,-0.830
1742443,0.725,-0.770
1742444,0.750,-0.740
1742445,0.750,-0.630
1742446,0.740,-0.615
1742447,0.740,-0.715
1742448,0.715,-0.850
1742449,0.680,-0.900
1742450,0.670,-0.855
1742451,0.650,-0.755
1742452,0.600,-0.665
1742453,0.575,-0.575
1742454,0.540,-0.555
1742455,0.460,-0.505
1742456,0.405,-0.450
1742457,0.360,-0.365
1742458,0.310,-0.325
1742459,0.245,-0.465
1742460,0.225,-0.665
1742461,0.170,-0.705
1742462,0.130,-0.605
1742463,0.080,-0.490
1742464,0.060,-0.435
1742465,0.015,-0.470
1742466,-0.010,-0.560
1742467,0.005,-0.545
1742468,0.000,-0.565
1742469,-0.040,-0.560
1742470,-0.060,-0.615
1742471,-0.050,-0.645
1742472,-0.080,-0.645
1742473,-0.075,-0.570
1742474,-0.090,-0.510
1742475,-0.110,-0.495
1742476,-0.100,-0.550
1742477,-0.125,-0.610
1742478,-0.120,-0.610
1742479,-0.110,-0.550
1742480,-0.125,-0.485
1742481,-0.120,-0.490
1742482,-0.125,-0.570
1742483,-0.105,-0.670
1742484,-0.100,-0.660
1742485,-0.130,-0.620
1742486,-0.125,-0.610
1742487,-0.155,-0.560
1742488,-0.165,-0.475
1742489,-0.155,-0.490
1742490,-0.170,-0.590
1742491,-0.145,-0.640
1742492,-0.135,-0.595
1742493,-0.140,-0.495
1742494,-0.140,-0.475
1742495,-0.150,-0.560
1742496,-0.180,-0.640
1742497,-0.150,-0.590
1742498,-0.170,-0.505
1742499,-0.165,-0.435
1742500,-0.185,-0.515
1742501,-0.185,-0.630
1742502,-0.155,-0.670
1742503,-0.170,-0.630
1742504,-0.155,-0.580
1742505,-0.190,-0.510
1742506,-0.180,-0.545
1742507,-0.125,-0.500
1742508,-0.150,-0.465
1742509,-0.175,-0.530
1742510,-0.180,-0.610
1742511,-0.165,-0.605
1742512,-0.160,-0.505
1742513,-0.145,-0.455
1742514,-0.195,-0.525
1742515,-0.175,-0.545
1742516,-0.190,-0.465
1742517,-0.170,-0.505
1742518,-0.180,-0.510
1742519,-0.180,-0.510
1742520,-0.180,-0.570
1742521,-0.190,-0.600
1742522,-0.175,-0.660
1742523,-0.190,-0.660
1742524,-0.165,-0.600
1742525,-0.160,-0.535
1742526,-0.155,-0.485
1742527,-0.175,-0.335
1742528,-0.175,-0.280
1742529,-0.175,-0.505
1742530,-0.170,-0.670
1742531,-0.160,-0.575
1742532,-0.175,-0.540
1742533,-0.185,-0.600
1742534,-0.180,-0.565
1742535,-0.190,-0.510
1742536,-0.165,-0.540
1742537,-0.185,-0.585
1742538,-0.165,-0.570
1742539,-0.155,-0.575
1742540,-0.165,-0.585
1742541,-0.170,-0.490
1742542,-0.135,-0.465
1742543,-0.150,-0.425
1742544,-0.155,-0.440
1742545,-0.135,-0.415
1742546,-0.120,-0.425
1742547,-0.135,-0.535
1742548,-0.140,-0.630
1742549,-0.160,-0.720
1742550,-0.165,-0.665
1742551,-0.150,-0.560
1742552,-0.150,-0.445
1742553,-0.150,-0.355
1742554,-0.135,-0.365
1742555,-0.130,-0.400
1742556,-0.120,-0.510
1742557,-0.135,-0.540
1742558,-0.115,-0.520
1742559,-0.115,-0.605
1742560,-0.135,-0.670
1742561,-0.100,-0.585
1742562,-0.110,-0.520
1742563,-0.090,-0.460
1742564,-0.090,-0.440
1742565,-0.080,-0.400
1742566,-0.080,-0.420
1742567,-0.070,-0.480
1742568,-0.030,-0.410
1742569,0.000,-0.255
1742570,0.030,-0.235
1742571,0.075,-0.275
1742572,0.120,-0.250
1742573,0.105,-0.205
1742574,0.135,-0.360
1742575,0.150,-0.490
1742576,0.120,-0.415
1742577,0.070,-0.250
1742578,0.030,-0.260
1742579,-0.020,-0.410
1742580,-0.005,-0.540
1742581,-0.020,-0.555
1742582,-0.070,-0.535
1742583,-0.075,-0.535
1742584,-0.080,-0.530
1742585,-0.075,-0.555
1742586,-0.090,-0.480
1742587,-0.075,-0.505
1742588,-0.100,-0.580
1742589,-0.100,-0.485
1742590,-0.105,-0.425
1742591,-0.095,-0.555
1742592,-0.070,-0.650
1742593,-0.065,-0.630
1742594,-0.070,-0.660
1742595,-0.075,-0.655
1742596,-0.085,-0.495
1742597,-0.080,-0.340
1742598,-0.100,-0.415
1742599,-0.075,-0.500
1742600,-0.060,-0.515
1742601,-0.065,-0.565
1742602,-0.080,-0.585
1742603,-0.095,-0.480
1742604,-0.065,-0.460
1742605,-0.075,-0.470
1742606,-0.075,-0.440
1742607,-0.070,-0.330
1742608,0.015,0.005
1742609,0.105,0.480
1742610,0.040,0.925
1742611,-0.220,0.950
1742612,-0.665,0.880
1742613,-1.475,1.055
1742614,-2.350,1.280
1742615,-3.040,1.350
1742616,-3.420,1.350
1742617,-3.500,1.285
1742618,-3.350,1.285
1742619,-3.160,1.235
1742620,-2.915,1.150
1742621,-2.745,1.070
1742622,-2.535,1.040
1742623,-2.265,1.060
1742624,-2.095,0.900
1742625,-1.920,0.750
1742626,-1.760,0.780
1742627,-1.590,0.760
1742628,-1.435,0.490
1742629,-1.250,0.175
1742630,-1.130,-0.210
1742631,-0.985,-0.660
1742632,-0.775,-0.935
1742633,-0.630,-1.010
1742634,-0.465,-0.920
1742635,-0.295,-0.835
1742636,-0.135,-0.715
1742637,0.090,-0.630
1742638,0.265,-0.635
1742639,0.415,-0.715
1742640,0.490,-0.730
1742641,0.570,-0.665
1742642,0.585,-0.605
1742643,0.620,-0.565
1742644,0.685,-0.615
1742645,0.705,-0.640
1742646,0.735,-0.650
1742647,0.735,-0.660
1742648,0.760,-0.565
1742649,0.775,-0.375
1742650,0.810,-0.475
1742651,0.815,-0.640
1742652,0.830,-0.720
1742653,0.875,-0.720
1742654,0.905,-0.630
1742655,0.910,-0.585
1742656,0.950,-0.530
1742657,0.970,-0.450
1742658,1.015,-0.500
1742659,1.030,-0.600
1742660,1.075,-0.680
1742661,1.110,-0.620
1742662,1.120,-0.605
1742663,1.160,-0.635
1742664,1.190,-0.625
1742665,1.220,-0.570
1742666,1.280,-0.555
1742667,1.305,-0.545
1742668,1.330,-0.530
1742669,1.355,-0.475
1742670,1.355,-0.500
1742671,1.370,-0.550
1742672,1.380,-0.540
1742673,1.370,-0.510
1742674,1.340,-0.495
1742675,1.345,-0.540
1742676,1.320,-0.545
1742677,1.305,-0.510
1742678,1.265,-0.415
1742679,1.190,-0.400
1742680,1.160,-0.475
1742681,1.125,-0.480
1742682,1.025,-0.400
1742683,0.965,-0.355
1742684,0.915,-0.255
1742685,0.865,-0.170
1742686,0.800,-0.075
1742687,0.740,-0.105
1742688,0.680,-0.255
1742689,0.635,-0.290
1742690,0.575,-0.265
1742691,0.550,-0.285
1742692,0.495,-0.300
1742693,0.450,-0.240
1742694,0.425,-0.175
1742695,0.395,-0.140
1742696,0.355,-0.225
1742697,0.360,-0.420
1742698,0.315,-0.525
1742699,0.285,-0.450
1742700,0.300,-0.380
1742701,0.310,-0.285
1742702,0.295,-0.280
1742703,0.290,-0.390
1742704,0.300,-0.440
1742705,0.275,-0.470
1742706,0.270,-0.440
1742707,0.290,-0.410
1742708,0.265,-0.395
1742709,0.290,-0.390
1742710,0.270,-0.390
1742711,0.250,-0.385
1742712,0.260,-0.365
1742713,0.280,-0.335
1742714,0.270,-0.255
1742715,0.260,-0.240
1742716,0.260,-0.395
1742717,0.250,-0.570
1742718,0.245,-0.605
1742719,0.245,-0.540
1742720,0.260,-0.450
1742721,0.270,-0.370
1742722,0.275,-0.350
1742723,0.260,-0.415
1742724,0.245,-0.475
1742725,0.260,-0.455
1742726,0.235,-0.425
1742727,0.220,-0.435
1742728,0.235,-0.480
1742729,0.200,-0.575
1742730,0.200,-0.550
1742731,0.195,-0.565
1742732,0.180,-0.610
1742733,0.175,-0.615
1742734,0.165,-0.515
1742735,0.190,-0.395
1742736,0.155,-0.365
1742737,0.160,-0.460
1742738,0.165,-0.480
1742739,0.150,-0.420
1742740,0.130,-0.460
1742741,0.135,-0.530
1742742,0.125,-0.550
1742743,0.115,-0.540
1742744,0.115,-0.415
1742745,0.130,-0.370
1742746,0.125,-0.415
1742747,0.130,-0.445
1742748,0.115,-0.470
1742749,0.095,-0.480
1742750,0.080,-0.460
1742751,0.065,-0.415
1742752,0.090,-0.350
1742753,0.070,-0.320
1742754,0.050,-0.405
1742755,0.070,-0.490
1742756,0.035,-0.480
1742757,0.050,-0.435
1742758,0.040,-0.355
1742759,0.040,-0.220
1742760,0.050,-0.125
1742761,0.100,-0.140
1742762,0.130,-0.100
1742763,0.155,-0.070
1742764,0.170,-0.265
1742765,0.215,-0.385
1742766,0.260,-0.260
1742767,0.250,-0.120
1742768,0.245,-0.210
1742769,0.190,-0.320
1742770,0.135,-0.260
1742771,0.095,-0.200
1742772,0.055,-0.300
1742773,0.025,-0.395
1742774,0.020,-0.370
1742775,0.000,-0.280
1742776,-0.030,-0.265
1742777,-0.060,-0.300
1742778,-0.065,-0.445
1742779,-0.045,-0.530
1742780,-0.045,-0.590
1742781,-0.070,-0.660
1742782,-0.100,-0.590
1742783,-0.085,-0.460
1742784,-0.080,-0.305
1742785,-0.080,-0.300
1742786,-0.090,-0.415
1742787,-0.100,-0.630
1742788,-0.100,-0.695
1742789,-0.105,-0.615
1742790,-0.105,-0.435
1742791,-0.095,-0.310
1742792,-0.115,-0.380
1742793,-0.130,-0.470
1742794,-0.115,-0.530
1742795,-0.110,-0.525
1742796,-0.105,-0.435
1742797,-0.115,-0.280
1742798,-0.120,-0.225
1742799,-0.095,-0.375
1742800,-0.100,-0.450
1742801,-0.075,-0.280
1742802,-0.030,0.155
1742803,0.035,0.625
1742804,-0.070,0.890
1742805,-0.400,1.150
1742806,-1.000,1.405
1742807,-1.865,1.420
1742808,-2.665,1.405
1742809,-3.200,1.450
1742810,-3.460,1.450
1742811,-3.470,1.405
1742812,-3.300,1.350
1742813,-3.090,1.365
1742814,-2.900,1.300
1742815,-2.735,1.155
1742816,-2.530,1.065
1742817,-2.295,1.115
1742818,-2.100,1.170
1742819,-1.940,1.080
1742820,-1.760,0.980
1742821,-1.585,0.750
1742822,-1.425,0.310
1742823,-1.285,-0.090
1742824,-1.130,-0.315
1742825,-0.975,-0.495
1742826,-0.820,-0.615
1742827,-0.655,-0.655
1742828,-0.465,-0.580
1742829,-0.295,-0.480
1742830,-0.135,-0.495
1742831,0.055,-0.645
1742832,0.200,-0.700
1742833,0.330,-0.635
1742834,0.400,-0.525
1742835,0.465,-0.490
1742836,0.475,-0.520
1742837,0.510,-0.560
1742838,0.540,-0.515
1742839,0.585,-0.470
1742840,0.590,-0.450
1742841,0.610,-0.475
1742842,0.630,-0.555
1742843,0.665,-0.590
1742844,0.675,-0.535
1742845,0.670,-0.530
1742846,0.705,-0.520
1742847,0.725,-0.450
1742848,0.750,-0.475
1742849,0.770,-0.500
1742850,0.785,-0.530
1742851,0.850,-0.555
1742852,0.860,-0.515
1742853,0.890,-0.490
1742854,0.925,-0.445
1742855,0.935,-0.440
1742856,0.980,-0.455
1742857,0.985,-0.430
1742858,1.050,-0.390
1742859,1.090,-0.410
1742860,1.120,-0.450
1742861,1.150,-0.485
1742862,1.140,-0.470
1742863,1.160,-0.360
1742864,1.185,-0.250
1742865,1.180,-0.400
1742866,1.175,-0.625
1742867,1.200,-0.675
1742868,1.155,-0.515
1742869,1.130,-0.340
1742870,1.095,-0.330
1742871,1.070,-0.380
1742872,1.005,-0.360
1742873,0.955,-0.290
1742874,0.915,-0.250
1742875,0.850,-0.215
1742876,0.775,-0.205
1742877,0.725,-0.205
1742878,0.675,-0.215
1742879,0.625,-0.195
1742880,0.560,-0.165
1742881,0.510,-0.175
1742882,0.470,-0.150
1742883,0.420,-0.140
1742884,0.405,-0.175
1742885,0.360,-0.190
1742886,0.305,-0.210
1742887,0.290,-0.215
1742888,0.235,-0.190
1742889,0.240,-0.115
1742890,0.200,-0.210
1742891,0.215,-0.180
1742892,0.200,-0.165
1742893,0.180,-0.400
1742894,0.185,-0.570
1742895,0.175,-0.515
1742896,0.175,-0.400
1742897,0.190,-0.280
1742898,0.170,-0.190
1742899,0.150,-0.200
1742900,0.175,-0.290
1742901,0.175,-0.415
1742902,0.185,-0.465
1742903,0.190,-0.365
1742904,0.190,-0.270
1742905,0.205,-0.315
1742906,0.205,-0.295
1742907,0.195,-0.315
1742908,0.205,-0.465
1742909,0.205,-0.575
1742910,0.180,-0.540
1742911,0.175,-0.530
1742912,0.210,-0.515
1742913,0.200,-0.470
1742914,0.205,-0.455
1742915,0.195,-0.420
1742916,0.195,-0.415
1742917,0.180,-0.400
1742918,0.185,-0.335
1742919,0.155,-0.270
1742920,0.155,-0.410
1742921,0.135,-0.505
1742922,0.155,-0.470
1742923,0.155,-0.340
1742924,0.160,-0.220
1742925,0.125,-0.195
1742926,0.125,-0.335
1742927,0.110,-0.535
1742928,0.105,-0.620
1742929,0.105,-0.615
1742930,0.135,-0.565
1742931,0.105,-0.380
1742932,0.085,-0.235
1742933,0.085,-0.295
1742934,0.075,-0.515
1742935,0.090,-0.595
1742936,0.085,-0.550
1742937,0.070,-0.465
1742938,0.065,-0.420
1742939,0.080,-0.415
1742940,0.055,-0.405
1742941,0.070,-0.385
1742942,0.055,-0.385
1742943,0.075,-0.395
1742944,0.055,-0.390
1742945,0.070,-0.345
1742946,0.060,-0.300
1742947,0.060,-0.275
1742948,0.070,-0.265
1742949,0.095,-0.235
1742950,0.140,-0.210
1742951,0.155,-0.200
1742952,0.180,-0.220
1742953,0.205,-0.180
1742954,0.270,-0.160
1742955,0.275,-0.160
1742956,0.280,-0.140
1742957,0.260,-0.155
1742958,0.200,-0.205
1742959,0.150,-0.215
1742960,0.120,-0.225
1742961,0.090,-0.200
1742962,0.075,-0.160
1742963,0.015,-0.150
1742964,0.000,-0.305
1742965,-0.035,-0.465
1742966,-0.005,-0.480
1742967,-0.030,-0.430
1742968,-0.050,-0.370
1742969,-0.040,-0.390
1742970,-0.030,-0.485
1742971,-0.040,-0.535
1742972,-0.045,-0.495
1742973,-0.055,-0.325
1742974,-0.025,-0.315
1742975,-0.060,-0.505
1742976,-0.060,-0.605
1742977,-0.055,-0.595
1742978,-0.055,-0.545
1742979,-0.040,-0.555
1742980,-0.060,-0.565
1742981,-0.065,-0.460
1742982,-0.075,-0.410
1742983,-0.065,-0.365
1742984,-0.080,-0.310
1742985,-0.080,-0.290
1742986,-0.075,-0.370
1742987,-0.100,-0.510
1742988,-0.095,-0.435
1742989,-0.080,-0.170
1742990,-0.065,0.040
1742991,-0.040,0.275
1742992,0.040,0.505
1742993,0.030,0.615
1742994,-0.215,0.665
1742995,-0.620,0.800
1742996,-1.305,1.005
1742997,-2.110,1.230
1742998,-2.785,1.390
1742999,-3.230,1.425
1743000,-3.355,1.490
1743001,-3.325,1.610
1743002,-3.175,1.570
1743003,-2.965,1.380
1743004,-2.790,1.165
1743005,-2.650,1.060
1743006,-2.455,1.080
1743007,-2.245,1.045
1743008,-2.090,0.975
1743009,-1.945,0.925
1743010,-1.770,0.940
1743011,-1.620,0.905
1743012,-1.435,0.535
1743013,-1.320,-0.010
1743014,-1.160,-0.370
1743015,-1.005,-0.410
1743016,-0.825,-0.495
1743017,-0.670,-0.745
1743018,-0.515,-0.890
1743019,-0.340,-0.895
1743020,-0.200,-0.815
1743021,-0.015,-0.655
1743022,0.135,-0.560
1743023,0.275,-0.615
1743024,0.340,-0.710
1743025,0.415,-0.670
1743026,0.465,-0.510
1743027,0.495,-0.560
1743028,0.520,-0.800
1743029,0.535,-0.945
1743030,0.555,-0.855
1743031,0.565,-0.715
1743032,0.610,-0.615
1743033,0.635,-0.590
1743034,0.640,-0.605
1743035,0.625,-0.595
1743036,0.670,-0.475
1743037,0.665,-0.315
1743038,0.705,-0.435
1743039,0.710,-0.665
1743040,0.725,-0.765
1743041,0.735,-0.770
1743042,0.760,-0.720
1743043,0.810,-0.585
1743044,0.850,-0.395
1743045,0.860,-0.470
1743046,0.895,-0.625
1743047,0.910,-0.645
1743048,0.950,-0.545
1743049,0.985,-0.670
1743050,1.010,-0.745
1743051,1.045,-0.630
1743052,1.090,-0.570
1743053,1.110,-0.600
1743054,1.115,-0.730
1743055,1.135,-0.800
1743056,1.150,-0.745
1743057,1.160,-0.660
1743058,1.150,-0.585
1743059,1.140,-0.440
1743060,1.150,-0.285
1743061,1.090,-0.425
1743062,1.065,-0.660
1743063,1.045,-0.690
1743064,1.000,-0.600
1743065,0.970,-0.470
1743066,0.905,-0.320
1743067,0.860,-0.180
1743068,0.805,-0.150
1743069,0.755,-0.315
1743070,0.705,-0.485
1743071,0.640,-0.515
1743072,0.570,-0.425
1743073,0.540,-0.365
1743074,0.460,-0.375
1743075,0.415,-0.300
1743076,0.370,-0.260
1743077,0.320,-0.450
1743078,0.280,-0.625
1743079,0.235,-0.595
1743080,0.195,-0.520
1743081,0.170,-0.445
1743082,0.150,-0.385
1743083,0.140,-0.395
1743084,0.135,-0.505
1743085,0.105,-0.555
1743086,0.090,-0.510
1743087,0.075,-0.530
1743088,0.075,-0.570
1743089,0.070,-0.565
1743090,0.070,-0.525
1743091,0.060,-0.545
1743092,0.055,-0.565
1743093,0.070,-0.570
1743094,0.060,-0.550
1743095,0.060,-0.585
1743096,0.060,-0.550
1743097,0.035,-0.470
1743098,0.035,-0.480
1743099,0.045,-0.550
1743100,0.070,-0.645
1743101,0.060,-0.620
1743102,0.050,-0.540
1743103,0.070,-0.495
1743104,0.075,-0.580
1743105,0.070,-0.650
1743106,0.090,-0.620
1743107,0.070,-0.525
1743108,0.085,-0.465
1743109,0.085,-0.385
1743110,0.060,-0.480
1743111,0.060,-0.720
1743112,0.075,-0.865
1743113,0.065,-0.795
1743114,0.075,-0.705
1743115,0.070,-0.610
1743116,0.060,-0.595
1743117,0.085,-0.595
1743118,0.060,-0.595
1743119,0.070,-0.585
1743120,0.065,-0.560
1743121,0.055,-0.555
1743122,0.050,-0.565
1743123,0.045,-0.570
1743124,0.050,-0.555
1743125,0.050,-0.525
1743126,0.045,-0.540
1743127,0.035,-0.545
1743128,0.040,-0.520
