'sample interval','ECG1','ECG2'
'0.004 sec','mV','mV'
2187500,0.075,-0.600
2187501,0.065,-0.605
2187502,0.090,-0.625
2187503,0.065,-0.625
2187504,0.075,-0.585
2187505,0.065,-0.580
2187506,0.060,-0.605
2187507,0.075,-0.620
2187508,0.060,-0.615
2187509,0.070,-0.645
2187510,0.070,-0.700
2187511,0.055,-0.710
2187512,0.010,-0.685
2187513,0.015,-0.650
2187514,0.015,-0.645
2187515,0.070,-0.590
2187516,0.085,-0.555
2187517,0.060,-0.630
2187518,0.055,-0.690
2187519,0.050,-0.660
2187520,0.045,-0.610
2187521,-0.005,-0.630
2187522,-0.015,-0.635
2187523,0.010,-0.610
2187524,0.010,-0.520
2187525,-0.010,-0.385
2187526,0.000,-0.210
2187527,0.025,0.020
2187528,0.090,0.330
2187529,0.065,0.500
2187530,-0.110,0.665
2187531,-0.460,0.850
2187532,-1.025,1.045
2187533,-1.645,1.315
2187534,-2.160,1.550
2187535,-2.530,1.615
2187536,-2.670,1.480
2187537,-2.590,1.285
2187538,-2.420,1.155
2187539,-2.240,1.125
2187540,-2.085,0.975
2187541,-1.945,0.825
2187542,-1.735,0.710
2187543,-1.565,0.670
2187544,-1.475,0.655
2187545,-1.375,0.600
2187546,-1.260,0.480
2187547,-1.120,0.220
2187548,-1.015,-0.200
2187549,-0.950,-0.615
2187550,-0.880,-0.890
2187551,-0.780,-0.995
2187552,-0.705,-1.050
2187553,-0.570,-1.000
2187554,-0.465,-0.885
2187555,-0.335,-0.830
2187556,-0.175,-0.835
2187557,-0.025,-0.855
2187558,0.110,-0.790
2187559,0.255,-0.755
2187560,0.370,-0.750
2187561,0.450,-0.795
2187562,0.480,-0.770
2187563,0.490,-0.775
2187564,0.500,-0.775
2187565,0.530,-0.775
2187566,0.530,-0.755
2187567,0.560,-0.750
2187568,0.545,-0.710
2187569,0.555,-0.695
2187570,0.590,-0.695
2187571,0.585,-0.710
2187572,0.610,-0.700
2187573,0.615,-0.695
2187574,0.655,-0.700
2187575,0.650,-0.665
2187576,0.655,-0.590
2187577,0.625,-0.570
2187578,0.660,-0.580
2187579,0.670,-0.585
2187580,0.700,-0.530
2187581,0.730,-0.550
2187582,0.745,-0.540
2187583,0.785,-0.565
2187584,0.795,-0.535
2187585,0.805,-0.435
2187586,0.855,-0.380
2187587,0.890,-0.440
2187588,0.915,-0.505
2187589,0.940,-0.495
2187590,0.970,-0.465
2187591,0.970,-0.450
2187592,1.020,-0.460
2187593,1.045,-0.420
2187594,1.035,-0.380
2187595,1.030,-0.320
2187596,1.050,-0.250
2187597,1.045,-0.225
2187598,1.035,-0.230
2187599,0.965,-0.150
2187600,0.965,-0.055
2187601,0.910,-0.140
2187602,0.840,-0.310
2187603,0.770,-0.310
2187604,0.765,-0.220
2187605,0.695,-0.190
2187606,0.645,-0.160
2187607,0.570,-0.105
2187608,0.535,-0.055
2187609,0.480,-0.035
2187610,0.450,-0.080
2187611,0.390,-0.065
2187612,0.345,-0.095
2187613,0.295,-0.120
2187614,0.260,-0.160
2187615,0.230,-0.200
2187616,0.175,-0.180
2187617,0.175,-0.125
2187618,0.150,-0.095
2187619,0.135,-0.090
2187620,0.130,-0.110
2187621,0.110,-0.180
2187622,0.090,-0.215
2187623,0.080,-0.215
2187624,0.065,-0.100
2187625,0.035,-0.090
2187626,0.075,-0.150
2187627,0.075,-0.235
2187628,0.100,-0.265
2187629,0.135,-0.245
2187630,0.110,-0.235
2187631,0.110,-0.205
2187632,0.115,-0.185
2187633,0.105,-0.200
2187634,0.115,-0.255
2187635,0.105,-0.320
2187636,0.110,-0.345
2187637,0.115,-0.320
2187638,0.125,-0.305
2187639,0.135,-0.340
2187640,0.135,-0.330
2187641,0.135,-0.310
2187642,0.135,-0.305
2187643,0.150,-0.315
2187644,0.150,-0.320
2187645,0.165,-0.340
2187646,0.170,-0.350
2187647,0.185,-0.320
2187648,0.165,-0.330
2187649,0.155,-0.320
2187650,0.135,-0.315
2187651,0.175,-0.305
2187652,0.175,-0.320
2187653,0.145,-0.305
2187654,0.090,-0.285
2187655,0.095,-0.290
2187656,0.095,-0.285
2187657,0.055,-0.270
2187658,0.040,-0.250
2187659,0.035,-0.290
2187660,0.035,-0.350
2187661,0.030,-0.315
2187662,0.040,-0.270
2187663,0.065,-0.250
2187664,0.045,-0.300
2187665,0.050,-0.340
2187666,0.045,-0.335
2187667,0.045,-0.320
2187668,0.025,-0.210
2187669,0.040,-0.225
2187670,0.045,-0.260
2187671,0.040,-0.305
2187672,0.030,-0.275
2187673,0.045,-0.245
2187674,0.050,-0.285
2187675,0.030,-0.330
2187676,0.025,-0.295
2187677,0.045,-0.240
2187678,0.065,-0.210
2187679,0.110,-0.235
2187680,0.100,-0.220
2187681,0.065,-0.210
2187682,0.070,-0.180
2187683,0.065,-0.205
2187684,0.095,-0.215
2187685,0.085,-0.220
2187686,0.050,-0.240
2187687,0.035,-0.245
2187688,0.055,-0.245
2187689,0.060,-0.265
2187690,0.050,-0.270
2187691,0.060,-0.235
2187692,0.045,-0.205
2187693,0.085,-0.140
2187694,0.085,0.015
2187695,0.070,0.220
2187696,0.175,0.555
2187697,0.175,0.845
2187698,0.045,0.985
2187699,-0.335,1.135
2187700,-0.905,1.360
2187701,-1.580,1.580
2187702,-2.095,1.660
2187703,-2.510,1.655
2187704,-2.705,1.470
2187705,-2.670,1.410
2187706,-2.545,1.410
2187707,-2.360,1.350
2187708,-2.215,1.170
2187709,-2.055,0.895
2187710,-1.925,0.735
2187711,-1.765,0.645
2187712,-1.615,0.545
2187713,-1.465,0.440
2187714,-1.360,0.365
2187715,-1.245,0.185
2187716,-1.185,-0.160
2187717,-1.110,-0.570
2187718,-1.050,-0.800
2187719,-0.970,-0.900
2187720,-0.865,-0.885
2187721,-0.755,-0.870
2187722,-0.635,-0.815
2187723,-0.465,-0.735
2187724,-0.330,-0.625
2187725,-0.180,-0.575
2187726,-0.030,-0.540
2187727,0.110,-0.445
2187728,0.200,-0.415
2187729,0.300,-0.465
2187730,0.330,-0.540
2187731,0.375,-0.570
2187732,0.425,-0.545
2187733,0.445,-0.505
2187734,0.485,-0.460
2187735,0.485,-0.425
2187736,0.495,-0.390
2187737,0.525,-0.310
2187738,0.525,-0.340
2187739,0.515,-0.395
2187740,0.510,-0.375
2187741,0.520,-0.375
2187742,0.535,-0.390
2187743,0.550,-0.405
2187744,0.590,-0.390
2187745,0.605,-0.360
2187746,0.600,-0.335
2187747,0.675,-0.305
2187748,0.725,-0.345
2187749,0.730,-0.370
2187750,0.735,-0.345
2187751,0.730,-0.320
2187752,0.745,-0.325
2187753,0.775,-0.310
2187754,0.795,-0.265
2187755,0.810,-0.290
2187756,0.785,-0.340
2187757,0.820,-0.330
2187758,0.845,-0.300
2187759,0.850,-0.295
2187760,0.880,-0.260
2187761,0.870,-0.270
2187762,0.850,-0.325
2187763,0.820,-0.395
2187764,0.785,-0.415
2187765,0.775,-0.350
2187766,0.775,-0.255
2187767,0.765,-0.220
2187768,0.705,-0.240
2187769,0.670,-0.285
2187770,0.600,-0.225
2187771,0.545,-0.210
2187772,0.515,-0.235
2187773,0.435,-0.315
2187774,0.415,-0.320
2187775,0.365,-0.290
2187776,0.320,-0.255
2187777,0.290,-0.245
2187778,0.265,-0.275
2187779,0.215,-0.290
2187780,0.200,-0.270
2187781,0.160,-0.290
2187782,0.155,-0.375
2187783,0.110,-0.385
2187784,0.075,-0.370
2187785,0.070,-0.435
2187786,0.065,-0.515
2187787,0.050,-0.505
2187788,0.005,-0.545
2187789,-0.005,-0.580
2187790,-0.015,-0.585
2187791,-0.050,-0.540
2187792,-0.050,-0.520
2187793,-0.025,-0.515
2187794,-0.055,-0.555
2187795,-0.095,-0.580
2187796,-0.105,-0.615
2187797,-0.125,-0.640
2187798,-0.075,-0.630
2187799,-0.065,-0.620
2187800,-0.080,-0.620
2187801,-0.060,-0.585
2187802,-0.040,-0.590
2187803,-0.055,-0.640
2187804,-0.080,-0.685
2187805,-0.100,-0.675
2187806,-0.100,-0.635
2187807,-0.060,-0.625
2187808,-0.055,-0.650
2187809,-0.085,-0.650
2187810,-0.090,-0.680
2187811,-0.060,-0.715
2187812,-0.065,-0.685
2187813,-0.075,-0.675
2187814,-0.095,-0.650
2187815,-0.090,-0.655
2187816,-0.080,-0.620
2187817,-0.045,-0.690
2187818,-0.005,-0.720
2187819,0.010,-0.680
2187820,0.010,-0.670
2187821,0.000,-0.630
2187822,-0.010,-0.610
2187823,-0.035,-0.590
2187824,-0.030,-0.555
2187825,-0.035,-0.625
2187826,-0.050,-0.715
2187827,-0.060,-0.720
2187828,-0.060,-0.655
2187829,-0.035,-0.595
2187830,-0.035,-0.550
2187831,-0.035,-0.615
2187832,-0.070,-0.660
2187833,-0.090,-0.620
2187834,-0.075,-0.570
2187835,-0.060,-0.495
2187836,-0.075,-0.525
2187837,-0.080,-0.655
2187838,-0.075,-0.660
2187839,-0.050,-0.610
2187840,-0.060,-0.590
2187841,-0.065,-0.595
2187842,-0.035,-0.575
2187843,-0.065,-0.560
2187844,-0.080,-0.485
2187845,-0.060,-0.480
2187846,-0.050,-0.590
2187847,-0.070,-0.655
2187848,-0.075,-0.695
2187849,-0.100,-0.675
2187850,-0.090,-0.640
2187851,-0.070,-0.635
2187852,-0.100,-0.595
2187853,-0.085,-0.530
2187854,-0.065,-0.475
2187855,-0.050,-0.395
2187856,-0.025,-0.320
2187857,-0.010,-0.140
2187858,0.000,0.175
2187859,0.070,0.590
2187860,0.035,0.880
2187861,-0.150,0.990
2187862,-0.500,1.110
2187863,-0.985,1.195
2187864,-1.540,1.370
2187865,-2.040,1.465
2187866,-2.395,1.425
2187867,-2.505,1.440
2187868,-2.435,1.330
2187869,-2.265,1.135
2187870,-2.120,0.895
2187871,-1.995,0.690
2187872,-1.860,0.540
2187873,-1.655,0.480
2187874,-1.480,0.400
2187875,-1.390,0.295
2187876,-1.300,0.280
2187877,-1.210,0.115
2187878,-1.095,-0.240
2187879,-1.010,-0.615
2187880,-0.970,-0.825
2187881,-0.895,-0.910
2187882,-0.835,-0.985
2187883,-0.715,-1.000
2187884,-0.605,-1.040
2187885,-0.450,-1.025
2187886,-0.345,-0.935
2187887,-0.185,-0.845
2187888,-0.045,-0.845
2187889,0.105,-0.825
2187890,0.200,-0.805
2187891,0.210,-0.760
2187892,0.245,-0.730
2187893,0.280,-0.720
2187894,0.285,-0.750
2187895,0.355,-0.780
2187896,0.405,-0.770
2187897,0.405,-0.730
2187898,0.430,-0.700
2187899,0.475,-0.730
2187900,0.480,-0.810
2187901,0.465,-0.840
2187902,0.495,-0.760
2187903,0.530,-0.710
2187904,0.555,-0.740
2187905,0.585,-0.800
2187906,0.610,-0.800
2187907,0.635,-0.730
2187908,0.635,-0.705
2187909,0.660,-0.745
2187910,0.625,-0.810
2187911,0.650,-0.810
2187912,0.650,-0.800
2187913,0.700,-0.770
2187914,0.720,-0.725
2187915,0.740,-0.735
2187916,0.775,-0.775
2187917,0.755,-0.785
2187918,0.790,-0.755
2187919,0.830,-0.655
2187920,0.830,-0.615
2187921,0.840,-0.675
2187922,0.860,-0.685
2187923,0.855,-0.655
2187924,0.830,-0.605
2187925,0.830,-0.580
2187926,0.800,-0.540
2187927,0.770,-0.510
2187928,0.720,-0.495
2187929,0.665,-0.470
2187930,0.655,-0.440
2187931,0.645,-0.405
2187932,0.605,-0.390
2187933,0.545,-0.425
2187934,0.495,-0.430
2187935,0.450,-0.425
2187936,0.405,-0.400
2187937,0.360,-0.470
2187938,0.345,-0.520
2187939,0.310,-0.610
2187940,0.270,-0.625
2187941,0.255,-0.570
2187942,0.185,-0.535
2187943,0.180,-0.635
2187944,0.190,-0.680
2187945,0.195,-0.635
2187946,0.155,-0.615
2187947,0.160,-0.625
2187948,0.140,-0.665
2187949,0.105,-0.715
2187950,0.075,-0.720
2187951,0.065,-0.735
2187952,0.065,-0.680
2187953,0.075,-0.630
2187954,0.080,-0.630
2187955,0.085,-0.660
2187956,0.065,-0.690
2187957,0.035,-0.710
2187958,0.055,-0.705
2187959,0.070,-0.720
2187960,0.090,-0.715
2187961,0.070,-0.705
2187962,0.060,-0.740
2187963,0.055,-0.755
2187964,0.095,-0.740
2187965,0.105,-0.715
2187966,0.110,-0.715
2187967,0.105,-0.725
2187968,0.115,-0.770
2187969,0.100,-0.790
2187970,0.100,-0.785
2187971,0.070,-0.815
2187972,0.080,-0.870
2187973,0.105,-0.900
2187974,0.080,-0.920
2187975,0.070,-0.840
2187976,0.060,-0.835
2187977,0.050,-0.810
2187978,0.115,-0.820
2187979,0.125,-0.835
2187980,0.125,-0.825
2187981,0.105,-0.795
2187982,0.115,-0.750
2187983,0.100,-0.815
2187984,0.095,-0.875
2187985,0.060,-0.860
2187986,0.100,-0.775
2187987,0.150,-0.755
2187988,0.145,-0.775
2187989,0.125,-0.775
2187990,0.105,-0.780
2187991,0.075,-0.760
2187992,0.085,-0.765
2187993,0.045,-0.770
2187994,0.075,-0.730
2187995,0.055,-0.705
2187996,0.060,-0.735
2187997,0.055,-0.745
2187998,0.055,-0.755
2187999,0.025,-0.720
2188000,0.035,-0.685
2188001,0.035,-0.695
2188002,0.055,-0.680
2188003,0.045,-0.730
2188004,0.070,-0.765
2188005,0.050,-0.785
2188006,0.010,-0.760
2188007,0.050,-0.715
2188008,0.060,-0.650
2188009,0.070,-0.550
2188010,0.090,-0.615
2188011,0.065,-0.730
2188012,0.045,-0.810
2188013,0.075,-0.845
2188014,0.055,-0.815
2188015,0.035,-0.795
2188016,0.100,-0.760
2188017,0.100,-0.735
2188018,0.100,-0.650
2188019,0.090,-0.600
2188020,0.125,-0.600
2188021,0.130,-0.665
2188022,0.125,-0.660
2188023,0.140,-0.635
2188024,0.160,-0.635
2188025,0.155,-0.645
2188026,0.145,-0.640
2188027,0.160,-0.610
2188028,0.150,-0.640
2188029,0.150,-0.650
2188030,0.140,-0.615
2188031,0.140,-0.565
2188032,0.160,-0.605
2188033,0.170,-0.705
2188034,0.155,-0.715
2188035,0.175,-0.675
2188036,0.140,-0.610
2188037,0.090,-0.635
2188038,0.050,-0.600
2188039,0.045,-0.540
2188040,0.045,-0.590
2188041,0.050,-0.685
2188042,0.050,-0.715
2188043,0.040,-0.720
2188044,0.015,-0.680
2188045,0.015,-0.680
2188046,0.035,-0.680
2188047,0.050,-0.670
2188048,0.045,-0.685
2188049,0.005,-0.680
2188050,0.000,-0.615
2188051,0.025,-0.450
2188052,0.045,-0.255
2188053,0.100,0.020
2188054,0.165,0.350
2188055,0.080,0.605
2188056,-0.190,0.800
2188057,-0.660,0.960
2188058,-1.280,1.155
2188059,-1.895,1.300
2188060,-2.395,1.360
2188061,-2.650,1.330
2188062,-2.630,1.290
2188063,-2.460,1.280
2188064,-2.230,1.275
2188065,-2.065,1.200
2188066,-1.990,1.075
2188067,-1.805,0.945
2188068,-1.590,0.860
2188069,-1.450,0.830
2188070,-1.350,0.775
2188071,-1.220,0.670
2188072,-1.080,0.370
2188073,-0.955,-0.125
2188074,-0.880,-0.650
2188075,-0.775,-0.925
2188076,-0.640,-1.030
2188077,-0.550,-1.015
2188078,-0.455,-0.960
2188079,-0.280,-0.905
2188080,-0.155,-0.785
2188081,0.010,-0.750
2188082,0.170,-0.825
2188083,0.295,-0.855
2188084,0.375,-0.825
2188085,0.420,-0.760
2188086,0.455,-0.755
2188087,0.460,-0.760
2188088,0.480,-0.745
2188089,0.480,-0.690
2188090,0.485,-0.700
2188091,0.500,-0.710
2188092,0.495,-0.705
2188093,0.540,-0.700
2188094,0.555,-0.680
2188095,0.580,-0.575
2188096,0.590,-0.520
2188097,0.615,-0.600
2188098,0.655,-0.685
2188099,0.680,-0.695
2188100,0.695,-0.590
2188101,0.755,-0.510
2188102,0.780,-0.480
2188103,0.835,-0.525
2188104,0.890,-0.555
2188105,0.930,-0.570
2188106,0.910,-0.540
2188107,0.935,-0.530
2188108,1.000,-0.495
2188109,1.035,-0.465
2188110,1.070,-0.405
2188111,1.095,-0.355
2188112,1.120,-0.415
2188113,1.130,-0.520
2188114,1.155,-0.565
2188115,1.185,-0.520
2188116,1.160,-0.460
2188117,1.150,-0.435
2188118,1.145,-0.405
2188119,1.140,-0.385
2188120,1.090,-0.330
2188121,1.045,-0.305
2188122,0.960,-0.255
2188123,0.875,-0.250
2188124,0.845,-0.200
2188125,0.780,-0.125
2188126,0.715,-0.095
2188127,0.675,-0.075
2188128,0.605,0.035
2188129,0.555,0.190
2188130,0.485,0.280
2188131,0.460,0.215
2188132,0.395,0.075
2188133,0.335,0.065
2188134,0.280,0.125
2188135,0.275,0.155
2188136,0.285,0.165
2188137,0.280,0.170
2188138,0.235,0.115
2188139,0.200,0.130
2188140,0.165,0.150
2188141,0.175,0.150
2188142,0.165,0.140
2188143,0.215,0.135
2188144,0.210,0.125
2188145,0.205,0.155
2188146,0.220,0.160
2188147,0.245,0.140
2188148,0.250,0.150
2188149,0.250,0.165
2188150,0.250,0.170
2188151,0.265,0.185
2188152,0.260,0.165
2188153,0.260,0.120
2188154,0.220,0.090
2188155,0.210,0.055
2188156,0.235,0.020
2188157,0.220,-0.020
2188158,0.225,-0.025
2188159,0.230,-0.005
2188160,0.245,0.000
2188161,0.245,0.025
2188162,0.225,0.035
2188163,0.210,0.050
2188164,0.205,0.080
2188165,0.200,0.075
2188166,0.215,0.115
2188167,0.215,0.180
2188168,0.200,0.260
2188169,0.210,0.485
2188170,0.210,0.730
2188171,0.300,0.865
2188172,0.355,0.965
2188173,0.215,1.105
2188174,-0.135,1.370
2188175,-0.665,1.685
2188176,-1.405,1.915
2188177,-1.945,2.025
2188178,-2.385,2.040
2188179,-2.525,2.000
2188180,-2.385,2.010
2188181,-2.195,1.910
2188182,-1.960,1.785
2188183,-1.825,1.710
2188184,-1.745,1.550
2188185,-1.580,1.410
2188186,-1.430,1.300
2188187,-1.325,1.230
2188188,-1.190,1.130
2188189,-1.060,0.945
2188190,-0.955,0.515
2188191,-0.865,0.095
2188192,-0.775,-0.180
2188193,-0.665,-0.295
2188194,-0.515,-0.355
2188195,-0.360,-0.315
2188196,-0.205,-0.230
2188197,-0.050,-0.180
2188198,0.105,-0.135
2188199,0.295,-0.120
2188200,0.420,-0.120
2188201,0.565,-0.170
2188202,0.600,-0.110
2188203,0.635,-0.045
2188204,0.660,-0.075
2188205,0.685,-0.055
2188206,0.715,0.065
2188207,0.730,0.135
2188208,0.730,0.065
2188209,0.720,-0.010
2188210,0.730,-0.010
2188211,0.755,0.065
2188212,0.790,-0.005
2188213,0.805,-0.060
2188214,0.795,-0.095
2188215,0.805,-0.100
2188216,0.845,-0.050
2188217,0.920,-0.015
2188218,0.930,-0.010
2188219,0.965,0.025
2188220,0.990,0.035
2188221,1.015,0.045
2188222,1.045,0.050
2188223,1.045,0.065
2188224,1.090,0.080
2188225,1.085,0.050
2188226,1.090,0.035
2188227,1.115,0.025
2188228,1.090,0.045
2188229,1.140,0.055
2188230,1.145,0.070
2188231,1.150,0.110
2188232,1.135,0.110
2188233,1.110,0.115
2188234,1.100,0.120
2188235,1.075,0.180
2188236,1.035,0.215
2188237,1.000,0.235
2188238,0.935,0.225
2188239,0.905,0.260
2188240,0.855,0.310
2188241,0.800,0.325
2188242,0.740,0.380
2188243,0.690,0.560
2188244,0.670,0.795
2188245,0.630,0.775
2188246,0.575,0.375
2188247,0.525,-0.090
2188248,0.510,-0.155
2188249,0.500,-0.025
2188250,0.495,0.065
2188251,0.505,0.140
2188252,0.490,0.180
2188253,0.475,0.180
2188254,0.435,0.190
2188255,0.415,0.200
2188256,0.420,0.195
2188257,0.425,0.180
2188258,0.415,0.160
2188259,0.385,0.160
2188260,0.370,0.155
2188261,0.375,0.190
2188262,0.355,0.155
2188263,0.355,0.140
2188264,0.340,0.115
2188265,0.380,0.095
2188266,0.345,0.070
2188267,0.340,0.095
2188268,0.325,0.145
2188269,0.330,0.160
2188270,0.320,0.145
2188271,0.315,0.195
2188272,0.325,0.245
2188273,0.315,0.135
2188274,0.300,-0.060
2188275,0.270,-0.140
2188276,0.310,-0.075
2188277,0.305,-0.040
2188278,0.310,0.015
2188279,0.335,0.110
2188280,0.320,0.175
2188281,0.310,0.115
2188282,0.295,0.015
2188283,0.305,-0.010
2188284,0.285,0.025
2188285,0.240,0.050
2188286,0.225,0.045
2188287,0.240,0.050
2188288,0.280,0.040
2188289,0.265,0.060
2188290,0.250,0.035
2188291,0.260,-0.005
2188292,0.270,0.000
2188293,0.240,0.005
2188294,0.195,-0.035
2188295,0.155,-0.075
2188296,0.150,-0.100
2188297,0.125,-0.270
2188298,0.140,-0.420
2188299,0.155,-0.455
2188300,0.140,-0.475
2188301,0.140,-0.520
2188302,0.140,-0.575
2188303,0.145,-0.580
2188304,0.150,-0.585
2188305,0.125,-0.555
2188306,0.125,-0.590
2188307,0.135,-0.605
2188308,0.130,-0.605
2188309,0.140,-0.570
2188310,0.190,-0.580
2188311,0.175,-0.605
2188312,0.170,-0.565
2188313,0.120,-0.535
2188314,0.125,-0.640
2188315,0.150,-0.760
2188316,0.135,-0.795
2188317,0.115,-0.770
2188318,0.150,-0.785
2188319,0.170,-0.750
2188320,0.180,-0.735
2188321,0.165,-0.700
2188322,0.140,-0.660
2188323,0.145,-0.670
2188324,0.145,-0.660
2188325,0.165,-0.670
2188326,0.175,-0.660
2188327,0.190,-0.640
2188328,0.215,-0.675
2188329,0.200,-0.685
2188330,0.180,-0.705
2188331,0.175,-0.690
2188332,0.180,-0.715
2188333,0.165,-0.740
2188334,0.155,-0.760
2188335,0.150,-0.765
2188336,0.130,-0.785
2188337,0.135,-0.765
2188338,0.130,-0.730
2188339,0.105,-0.720
2188340,0.085,-0.750
2188341,0.080,-0.760
2188342,0.080,-0.775
2188343,0.080,-0.770
2188344,0.055,-0.730
2188345,0.045,-0.730
2188346,0.060,-0.715
2188347,0.085,-0.685
2188348,0.090,-0.635
2188349,0.130,-0.470
2188350,0.145,-0.190
2188351,0.220,0.155
2188352,0.290,0.515
2188353,0.210,0.665
2188354,-0.065,0.780
2188355,-0.505,0.915
2188356,-1.160,1.135
2188357,-1.760,1.300
2188358,-2.235,1.350
2188359,-2.525,1.355
2188360,-2.450,1.325
2188361,-2.290,1.230
2188362,-2.040,1.075
2188363,-1.880,0.910
2188364,-1.760,0.725
2188365,-1.560,0.555
2188366,-1.390,0.380
2188367,-1.250,0.240
2188368,-1.150,0.135
2188369,-1.040,0.035
2188370,-0.950,-0.240
2188371,-0.880,-0.685
2188372,-0.805,-1.040
2188373,-0.730,-1.190
2188374,-0.590,-1.255
2188375,-0.520,-1.235
2188376,-0.405,-1.160
2188377,-0.270,-1.100
2188378,-0.130,-1.060
2188379,0.005,-1.045
2188380,0.135,-0.985
2188381,0.245,-0.920
2188382,0.330,-0.905
2188383,0.390,-0.905
2188384,0.430,-0.890
2188385,0.455,-0.900
2188386,0.480,-0.875
2188387,0.520,-0.840
2188388,0.545,-0.845
2188389,0.585,-0.830
2188390,0.605,-0.770
2188391,0.635,-0.755
2188392,0.675,-0.750
2188393,0.705,-0.780
2188394,0.725,-0.760
2188395,0.750,-0.700
2188396,0.750,-0.665
2188397,0.805,-0.655
2188398,0.845,-0.635
2188399,0.900,-0.615
2188400,0.930,-0.595
2188401,0.955,-0.600
2188402,0.995,-0.615
2188403,1.030,-0.650
2188404,1.045,-0.645
2188405,1.095,-0.625
2188406,1.140,-0.630
2188407,1.185,-0.600
2188408,1.180,-0.620
2188409,1.195,-0.665
2188410,1.210,-0.655
2188411,1.220,-0.650
2188412,1.200,-0.635
2188413,1.195,-0.605
2188414,1.210,-0.570
2188415,1.200,-0.580
2188416,1.160,-0.570
2188417,1.130,-0.540
2188418,1.125,-0.530
2188419,1.085,-0.495
2188420,1.040,-0.515
2188421,0.980,-0.485
2188422,0.920,-0.445
2188423,0.885,-0.375
2188424,0.810,-0.355
2188425,0.760,-0.365
2188426,0.705,-0.370
2188427,0.670,-0.330
2188428,0.595,-0.320
2188429,0.580,-0.345
2188430,0.535,-0.395
2188431,0.470,-0.410
2188432,0.425,-0.385
2188433,0.390,-0.345
2188434,0.360,-0.350
2188435,0.360,-0.370
2188436,0.330,-0.420
2188437,0.335,-0.390
2188438,0.330,-0.380
2188439,0.310,-0.400
2188440,0.305,-0.425
2188441,0.300,-0.445
2188442,0.275,-0.480
2188443,0.315,-0.475
2188444,0.300,-0.470
2188445,0.270,-0.465
2188446,0.255,-0.520
2188447,0.280,-0.550
2188448,0.270,-0.520
2188449,0.290,-0.510
2188450,0.305,-0.545
2188451,0.300,-0.575
2188452,0.310,-0.585
2188453,0.325,-0.570
2188454,0.320,-0.560
2188455,0.310,-0.550
2188456,0.325,-0.550
2188457,0.315,-0.600
2188458,0.305,-0.620
2188459,0.325,-0.630
2188460,0.275,-0.640
2188461,0.250,-0.630
2188462,0.230,-0.620
2188463,0.215,-0.615
2188464,0.235,-0.635
2188465,0.225,-0.670
2188466,0.225,-0.645
2188467,0.195,-0.620
2188468,0.190,-0.615
2188469,0.190,-0.605
2188470,0.185,-0.560
2188471,0.190,-0.560
2188472,0.200,-0.605
2188473,0.205,-0.585
2188474,0.195,-0.555
2188475,0.210,-0.515
2188476,0.185,-0.535
2188477,0.195,-0.560
2188478,0.210,-0.605
2188479,0.215,-0.580
2188480,0.230,-0.545
2188481,0.225,-0.565
2188482,0.220,-0.570
2188483,0.190,-0.580
2188484,0.195,-0.595
2188485,0.170,-0.565
2188486,0.160,-0.555
2188487,0.170,-0.565
2188488,0.185,-0.540
2188489,0.200,-0.570
2188490,0.195,-0.550
2188491,0.220,-0.535
2188492,0.215,-0.500
2188493,0.240,-0.515
2188494,0.210,-0.555
2188495,0.245,-0.565
2188496,0.245,-0.535
2188497,0.245,-0.480
2188498,0.230,-0.455
2188499,0.215,-0.395
2188500,0.220,-0.375
2188501,0.200,-0.320
2188502,0.210,-0.215
2188503,0.230,0.025
2188504,0.215,0.405
2188505,0.225,0.825
2188506,0.155,1.065
2188507,-0.065,1.190
2188508,-0.395,1.300
2188509,-0.915,1.395
2188510,-1.405,1.535
2188511,-1.875,1.575
2188512,-2.205,1.475
2188513,-2.335,1.380
2188514,-2.260,1.245
2188515,-2.090,1.080
2188516,-1.920,0.905
2188517,-1.830,0.755
2188518,-1.715,0.580
2188519,-1.545,0.425
2188520,-1.405,0.320
2188521,-1.315,0.265
2188522,-1.205,0.260
2188523,-1.095,0.095
2188524,-1.000,-0.230
2188525,-0.925,-0.610
2188526,-0.860,-0.905
2188527,-0.770,-1.025
2188528,-0.670,-1.075
2188529,-0.570,-1.030
2188530,-0.460,-0.945
2188531,-0.300,-0.885
2188532,-0.150,-0.855
2188533,0.035,-0.810
2188534,0.185,-0.785
2188535,0.355,-0.750
2188536,0.465,-0.745
2188537,0.535,-0.750
2188538,0.590,-0.750
2188539,0.595,-0.735
2188540,0.605,-0.750
2188541,0.610,-0.760
2188542,0.610,-0.770
2188543,0.620,-0.785
2188544,0.635,-0.740
2188545,0.610,-0.695
2188546,0.630,-0.660
2188547,0.670,-0.640
2188548,0.690,-0.595
2188549,0.725,-0.600
2188550,0.735,-0.625
2188551,0.760,-0.640
2188552,0.795,-0.650
2188553,0.790,-0.640
2188554,0.820,-0.635
2188555,0.870,-0.650
2188556,0.880,-0.655
2188557,0.895,-0.650
2188558,0.920,-0.710
2188559,0.940,-0.705
2188560,0.935,-0.705
2188561,0.950,-0.715
2188562,0.950,-0.710
2188563,0.970,-0.705
2188564,0.980,-0.710
2188565,1.010,-0.725
2188566,1.015,-0.720
2188567,1.025,-0.720
2188568,1.045,-0.680
2188569,1.065,-0.665
2188570,1.050,-0.640
2188571,1.070,-0.625
2188572,1.070,-0.585
2188573,1.040,-0.560
2188574,1.030,-0.535
2188575,1.020,-0.470
2188576,0.990,-0.425
2188577,0.975,-0.385
2188578,0.925,-0.340
2188579,0.895,-0.365
2188580,0.860,-0.370
2188581,0.815,-0.380
2188582,0.745,-0.380
2188583,0.705,-0.380
2188584,0.645,-0.370
2188585,0.600,-0.385
2188586,0.555,-0.385
2188587,0.530,-0.390
2188588,0.520,-0.395
2188589,0.490,-0.415
2188590,0.455,-0.400
2188591,0.420,-0.400
2188592,0.425,-0.390
2188593,0.385,-0.440
2188594,0.385,-0.435
2188595,0.370,-0.470
2188596,0.370,-0.480
2188597,0.365,-0.510
2188598,0.340,-0.520
2188599,0.350,-0.530
2188600,0.355,-0.500
2188601,0.350,-0.500
2188602,0.365,-0.535
2188603,0.340,-0.520
2188604,0.340,-0.555
2188605,0.365,-0.570
2188606,0.385,-0.570
2188607,0.365,-0.585
2188608,0.400,-0.580
2188609,0.390,-0.565
2188610,0.395,-0.590
2188611,0.415,-0.605
2188612,0.415,-0.620
2188613,0.410,-0.630
2188614,0.415,-0.625
2188615,0.390,-0.620
2188616,0.390,-0.620
2188617,0.395,-0.600
2188618,0.370,-0.625
2188619,0.390,-0.640
2188620,0.375,-0.660
2188621,0.380,-0.645
2188622,0.360,-0.610
2188623,0.335,-0.595
2188624,0.315,-0.570
2188625,0.300,-0.545
2188626,0.325,-0.525
2188627,0.365,-0.530
2188628,0.355,-0.540
2188629,0.340,-0.520
2188630,0.330,-0.520
2188631,0.360,-0.520
2188632,0.355,-0.545
2188633,0.355,-0.575
2188634,0.350,-0.545
2188635,0.330,-0.575
2188636,0.320,-0.555
2188637,0.310,-0.570
2188638,0.305,-0.530
2188639,0.290,-0.520
2188640,0.285,-0.490
2188641,0.285,-0.470
2188642,0.305,-0.385
2188643,0.280,-0.180
2188644,0.335,0.075
2188645,0.395,0.410
2188646,0.390,0.680
2188647,0.200,0.880
2188648,-0.185,1.055
2188649,-0.750,1.210
2188650,-1.380,1.430
2188651,-1.870,1.555
2188652,-2.265,1.555
2188653,-2.410,1.505
2188654,-2.345,1.470
2188655,-2.170,1.350
2188656,-1.995,1.250
2188657,-1.850,1.120
2188658,-1.760,0.935
2188659,-1.645,0.770
2188660,-1.470,0.665
2188661,-1.365,0.605
2188662,-1.260,0.540
2188663,-1.135,0.485
2188664,-1.030,0.350
2188665,-0.890,0.025
2188666,-0.750,-0.415
2188667,-0.690,-0.765
2188668,-0.600,-0.900
2188669,-0.495,-0.970
2188670,-0.395,-0.955
2188671,-0.270,-0.925
2188672,-0.110,-0.885
2188673,0.050,-0.840
2188674,0.215,-0.815
2188675,0.375,-0.795
2188676,0.520,-0.760
2188677,0.660,-0.780
2188678,0.730,-0.770
2188679,0.755,-0.780
2188680,0.800,-0.800
2188681,0.850,-0.770
2188682,0.850,-0.770
2188683,0.850,-0.770
2188684,0.850,-0.760
2188685,0.880,-0.730
2188686,0.925,-0.730
2188687,0.925,-0.710
2188688,0.950,-0.720
2188689,0.980,-0.730
2188690,1.005,-0.735
2188691,1.000,-0.695
2188692,1.050,-0.680
2188693,1.060,-0.660
2188694,1.120,-0.655
2188695,1.160,-0.630
2188696,1.175,-0.670
2188697,1.205,-0.680
2188698,1.280,-0.675
2188699,1.275,-0.660
2188700,1.295,-0.665
2188701,1.325,-0.650
2188702,1.350,-0.640
2188703,1.425,-0.620
2188704,1.435,-0.605
2188705,1.450,-0.620
2188706,1.480,-0.615
2188707,1.495,-0.620
2188708,1.475,-0.615
2188709,1.480,-0.630
2188710,1.450,-0.590
2188711,1.415,-0.550
2188712,1.370,-0.515
2188713,1.310,-0.500
2188714,1.275,-0.450
2188715,1.205,-0.445
2188716,1.145,-0.420
2188717,1.090,-0.385
2188718,1.035,-0.360
2188719,0.955,-0.325
2188720,0.960,-0.290
2188721,0.930,-0.280
2188722,0.895,-0.295
2188723,0.875,-0.320
2188724,0.820,-0.340
2188725,0.775,-0.360
2188726,0.720,-0.375
2188727,0.705,-0.385
2188728,0.655,-0.365
2188729,0.620,-0.370
2188730,0.565,-0.380
2188731,0.555,-0.400
2188732,0.545,-0.370
2188733,0.520,-0.395
2188734,0.515,-0.435
2188735,0.530,-0.445
2188736,0.515,-0.450
2188737,0.480,-0.420
2188738,0.465,-0.440
2188739,0.470,-0.420
2188740,0.475,-0.405
2188741,0.520,-0.415
2188742,0.495,-0.405
2188743,0.535,-0.415
2188744,0.525,-0.425
2188745,0.495,-0.440
2188746,0.515,-0.440
2188747,0.500,-0.470
2188748,0.505,-0.480
2188749,0.500,-0.475
2188750,0.510,-0.500
2188751,0.500,-0.505
2188752,0.515,-0.520
2188753,0.515,-0.535
2188754,0.535,-0.535
2188755,0.515,-0.550
2188756,0.495,-0.540
2188757,0.475,-0.560
2188758,0.460,-0.580
2188759,0.460,-0.590
2188760,0.450,-0.570
2188761,0.405,-0.600
2188762,0.405,-0.585
2188763,0.370,-0.590
2188764,0.335,-0.585
2188765,0.315,-0.595
2188766,0.315,-0.570
2188767,0.350,-0.570
2188768,0.310,-0.590
2188769,0.310,-0.565
2188770,0.300,-0.540
2188771,0.310,-0.535
2188772,0.315,-0.530
2188773,0.300,-0.525
2188774,0.295,-0.505
2188775,0.295,-0.470
2188776,0.275,-0.440
2188777,0.300,-0.430
2188778,0.330,-0.435
2188779,0.360,-0.440
2188780,0.390,-0.440
2188781,0.395,-0.435
2188782,0.405,-0.420
2188783,0.390,-0.420
2188784,0.400,-0.415
2188785,0.375,-0.400
2188786,0.410,-0.420
2188787,0.405,-0.425
2188788,0.420,-0.430
2188789,0.410,-0.440
2188790,0.380,-0.440
2188791,0.400,-0.420
2188792,0.420,-0.460
2188793,0.400,-0.495
2188794,0.400,-0.470
2188795,0.400,-0.465
2188796,0.400,-0.470
2188797,0.400,-0.485
2188798,0.390,-0.490
2188799,0.360,-0.480
2188800,0.345,-0.455
2188801,0.350,-0.470
2188802,0.335,-0.445
2188803,0.345,-0.430
2188804,0.350,-0.410
2188805,0.350,-0.425
2188806,0.330,-0.425
2188807,0.345,-0.410
2188808,0.340,-0.400
2188809,0.350,-0.430
2188810,0.350,-0.475
2188811,0.340,-0.475
2188812,0.300,-0.440
2188813,0.285,-0.390
2188814,0.260,-0.365
2188815,0.260,-0.360
2188816,0.265,-0.365
2188817,0.305,-0.360
2188818,0.295,-0.385
2188819,0.315,-0.420
2188820,0.315,-0.390
2188821,0.315,-0.395
2188822,0.310,-0.440
2188823,0.310,-0.440
2188824,0.305,-0.450
2188825,0.280,-0.450
2188826,0.280,-0.440
2188827,0.290,-0.470
2188828,0.275,-0.450
2188829,0.285,-0.420
2188830,0.295,-0.440
2188831,0.275,-0.420
2188832,0.320,-0.415
2188833,0.330,-0.400
2188834,0.320,-0.395
2188835,0.340,-0.380
2188836,0.340,-0.360
2188837,0.385,-0.370
2188838,0.400,-0.350
2188839,0.425,-0.330
2188840,0.430,-0.245
2188841,0.425,-0.100
2188842,0.440,0.120
2188843,0.465,0.375
2188844,0.520,0.615
2188845,0.380,0.785
2188846,0.080,0.945
2188847,-0.460,1.115
2188848,-1.160,1.345
2188849,-1.765,1.515
2188850,-2.255,1.600
2188851,-2.475,1.605
2188852,-2.425,1.580
2188853,-2.265,1.535
2188854,-2.050,1.475
2188855,-1.880,1.420
2188856,-1.780,1.260
2188857,-1.620,1.115
2188858,-1.430,1.030
2188859,-1.285,0.955
2188860,-1.180,0.845
2188861,-1.085,0.750
2188862,-0.980,0.515
2188863,-0.825,0.060
2188864,-0.760,-0.420
2188865,-0.705,-0.735
2188866,-0.585,-0.890
2188867,-0.490,-0.940
2188868,-0.425,-0.900
2188869,-0.305,-0.845
2188870,-0.135,-0.785
2188871,0.035,-0.730
2188872,0.225,-0.680
2188873,0.385,-0.680
2188874,0.525,-0.690
2188875,0.605,-0.690
2188876,0.650,-0.640
2188877,0.670,-0.650
2188878,0.720,-0.645
2188879,0.770,-0.625
2188880,0.805,-0.610
2188881,0.825,-0.565
2188882,0.835,-0.550
2188883,0.865,-0.535
2188884,0.890,-0.535
2188885,0.935,-0.560
2188886,0.960,-0.535
2188887,0.955,-0.495
2188888,0.920,-0.460
2188889,0.925,-0.425
2188890,0.935,-0.415
2188891,0.985,-0.410
2188892,1.025,-0.410
2188893,1.055,-0.405
2188894,1.090,-0.395
2188895,1.120,-0.415
2188896,1.170,-0.420
2188897,1.240,-0.420
2188898,1.250,-0.410
2188899,1.275,-0.390
2188900,1.305,-0.380
2188901,1.315,-0.350
2188902,1.310,-0.400
2188903,1.340,-0.405
2188904,1.390,-0.375
2188905,1.380,-0.380
2188906,1.335,-0.380
2188907,1.350,-0.410
2188908,1.330,-0.430
2188909,1.300,-0.380
2188910,1.270,-0.360
2188911,1.230,-0.305
2188912,1.215,-0.270
2188913,1.155,-0.215
2188914,1.125,-0.235
2188915,1.085,-0.175
2188916,1.030,-0.135
2188917,0.990,-0.140
2188918,0.925,-0.130
2188919,0.870,-0.070
2188920,0.810,-0.070
2188921,0.770,-0.150
2188922,0.750,-0.160
2188923,0.730,-0.195
2188924,0.660,-0.210
2188925,0.590,-0.165
2188926,0.550,-0.160
2188927,0.495,-0.120
2188928,0.465,-0.170
2188929,0.440,-0.275
2188930,0.395,-0.335
2188931,0.365,-0.395
2188932,0.315,-0.340
2188933,0.270,-0.310
2188934,0.295,-0.330
2188935,0.260,-0.345
2188936,0.265,-0.380
2188937,0.260,-0.370
2188938,0.270,-0.350
2188939,0.240,-0.350
2188940,0.230,-0.395
2188941,0.235,-0.440
2188942,0.230,-0.410
2188943,0.220,-0.400
2188944,0.215,-0.390
2188945,0.230,-0.420
2188946,0.250,-0.430
2188947,0.250,-0.430
2188948,0.240,-0.405
2188949,0.245,-0.370
2188950,0.245,-0.430
2188951,0.265,-0.525
2188952,0.250,-0.590
2188953,0.255,-0.550
2188954,0.285,-0.500
2188955,0.275,-0.450
2188956,0.260,-0.370
2188957,0.265,-0.310
2188958,0.260,-0.355
2188959,0.250,-0.480
2188960,0.235,-0.435
2188961,0.220,-0.430
2188962,0.210,-0.575
2188963,0.160,-0.805
2188964,0.150,-0.875
2188965,0.175,-0.745
2188966,0.220,-0.635
2188967,0.235,-0.565
2188968,0.260,-0.515
2188969,0.275,-0.495
2188970,0.230,-0.510
2188971,0.210,-0.510
2188972,0.220,-0.505
2188973,0.210,-0.480
2188974,0.200,-0.480
2188975,0.170,-0.495
2188976,0.160,-0.520
2188977,0.130,-0.505
2188978,0.145,-0.460
2188979,0.115,-0.445
2188980,0.120,-0.420
2188981,0.120,-0.395
2188982,0.100,-0.380
2188983,0.110,-0.345
2188984,0.115,-0.335
2188985,0.115,-0.435
2188986,0.110,-0.475
2188987,0.130,-0.395
2188988,0.125,-0.260
2188989,0.140,-0.280
2188990,0.150,-0.420
2188991,0.140,-0.470
2188992,0.125,-0.495
2188993,0.140,-0.460
2188994,0.140,-0.415
2188995,0.150,-0.385
2188996,0.160,-0.380
2188997,0.180,-0.400
2188998,0.165,-0.405
2188999,0.150,-0.400
2189000,0.135,-0.335
2189001,0.135,-0.290
2189002,0.110,-0.290
2189003,0.110,-0.285
2189004,0.095,-0.285
2189005,0.120,-0.260
2189006,0.120,-0.270
2189007,0.125,-0.260
2189008,0.135,-0.255
2189009,0.085,-0.225
2189010,0.080,-0.200
2189011,0.085,-0.260
2189012,0.095,-0.260
2189013,0.090,-0.170
2189014,0.095,-0.085
2189015,0.110,-0.155
2189016,0.105,-0.315
2189017,0.065,-0.480
2189018,0.065,-0.500
2189019,0.070,-0.445
2189020,0.060,-0.395
2189021,0.045,-0.375
2189022,0.020,-0.325
2189023,0.040,-0.325
2189024,0.015,-0.330
2189025,0.040,-0.305
2189026,0.030,-0.275
2189027,0.030,-0.295
2189028,0.040,-0.270
2189029,0.015,-0.240
2189030,0.040,-0.205
2189031,0.030,-0.215
2189032,0.005,-0.275
2189033,0.035,-0.275
2189034,0.025,-0.275
2189035,0.040,-0.305
2189036,0.085,-0.285
2189037,0.110,-0.245
2189038,0.095,-0.240
2189039,0.100,-0.210
2189040,0.095,-0.190
2189041,0.075,-0.150
2189042,0.085,-0.140
2189043,0.130,-0.145
2189044,0.175,-0.170
2189045,0.170,-0.135
2189046,0.175,-0.100
2189047,0.165,-0.030
2189048,0.170,0.015
2189049,0.125,-0.085
2189050,0.105,-0.200
2189051,0.065,-0.360
2189052,0.055,-0.340
2189053,0.060,-0.235
2189054,0.060,-0.060
2189055,0.080,0.160
2189056,0.125,0.460
2189057,0.180,0.895
2189058,0.085,1.175
2189059,-0.190,1.305
2189060,-0.615,1.430
2189061,-1.180,1.565
2189062,-1.720,1.740
2189063,-2.195,1.815
2189064,-2.580,1.750
2189065,-2.675,1.685
2189066,-2.535,1.565
2189067,-2.310,1.405
2189068,-2.150,1.280
2189069,-2.020,1.075
2189070,-1.870,0.860
2189071,-1.700,0.665
2189072,-1.585,0.560
2189073,-1.475,0.560
2189074,-1.355,0.580
2189075,-1.200,0.410
2189076,-1.130,0.030
2189077,-1.075,-0.355
2189078,-0.990,-0.510
2189079,-0.910,-0.465
2189080,-0.815,-0.225
2189081,-0.715,-0.085
2189082,-0.525,-0.290
2189083,-0.355,-0.585
2189084,-0.175,-0.680
2189085,0.005,-0.540
2189086,0.205,-0.430
2189087,0.315,-0.365
2189088,0.395,-0.355
2189089,0.445,-0.345
2189090,0.490,-0.300
2189091,0.475,-0.285
2189092,0.490,-0.315
2189093,0.425,-0.285
2189094,0.410,-0.295
2189095,0.410,-0.305
2189096,0.370,-0.290
2189097,0.365,-0.265
2189098,0.395,-0.225
2189099,0.365,-0.250
2189100,0.375,-0.320
2189101,0.390,-0.230
2189102,0.435,-0.190
2189103,0.450,-0.245
2189104,0.455,-0.225
2189105,0.495,-0.215
2189106,0.550,-0.225
2189107,0.570,-0.250
2189108,0.590,-0.245
2189109,0.640,-0.205
2189110,0.645,-0.210
2189111,0.655,-0.190
2189112,0.680,-0.215
2189113,0.725,-0.245
2189114,0.730,-0.225
2189115,0.735,-0.215
2189116,0.735,-0.210
2189117,0.765,-0.175
2189118,0.815,-0.115
2189119,0.840,-0.075
2189120,0.800,-0.080
2189121,0.820,-0.075
2189122,0.820,-0.005
2189123,0.775,0.045
2189124,0.725,0.070
2189125,0.735,0.105
2189126,0.720,0.135
2189127,0.670,0.140
2189128,0.625,0.120
2189129,0.605,0.105
2189130,0.550,0.170
2189131,0.485,0.155
2189132,0.435,0.115
2189133,0.360,0.110
2189134,0.310,0.015
2189135,0.240,0.010
2189136,0.210,-0.010
2189137,0.135,-0.035
2189138,0.095,-0.060
2189139,0.105,-0.075
2189140,0.130,-0.115
2189141,0.115,-0.150
2189142,0.070,-0.145
2189143,0.025,-0.140
2189144,-0.005,-0.145
2189145,0.000,-0.120
2189146,-0.010,-0.145
2189147,-0.035,-0.150
2189148,-0.010,-0.145
2189149,-0.005,-0.160
2189150,-0.015,-0.180
2189151,-0.015,-0.195
2189152,-0.005,-0.155
2189153,-0.005,-0.170
2189154,-0.025,-0.175
2189155,0.010,-0.170
2189156,0.015,-0.210
2189157,0.030,-0.205
2189158,0.045,-0.220
2189159,0.040,-0.265
2189160,0.050,-0.240
2189161,0.070,-0.270
2189162,0.050,-0.270
2189163,0.055,-0.290
2189164,0.075,-0.300
2189165,0.080,-0.320
2189166,0.075,-0.335
2189167,0.095,-0.400
2189168,0.080,-0.420
2189169,0.060,-0.455
2189170,0.020,-0.450
2189171,0.000,-0.425
2189172,-0.030,-0.430
2189173,-0.015,-0.410
2189174,-0.005,-0.415
2189175,-0.015,-0.440
2189176,-0.020,-0.375
2189177,-0.005,-0.350
2189178,-0.050,-0.370
2189179,-0.045,-0.395
2189180,-0.025,-0.380
2189181,-0.025,-0.355
2189182,-0.005,-0.320
2189183,0.030,-0.300
2189184,0.010,-0.275
2189185,0.000,-0.310
2189186,0.000,-0.350
2189187,0.025,-0.345
2189188,0.015,-0.330
2189189,0.015,-0.260
2189190,-0.015,-0.260
2189191,-0.010,-0.240
2189192,0.000,-0.270
2189193,0.005,-0.280
2189194,0.010,-0.280
2189195,0.035,-0.255
2189196,0.045,-0.230
2189197,0.035,-0.250
2189198,0.045,-0.275
2189199,0.040,-0.255
2189200,0.030,-0.280
2189201,0.030,-0.310
2189202,0.020,-0.340
2189203,0.015,-0.335
2189204,0.030,-0.305
2189205,0.050,-0.340
2189206,0.035,-0.320
2189207,0.035,-0.300
2189208,0.025,-0.355
2189209,0.020,-0.330
2189210,0.000,-0.310
2189211,-0.035,-0.295
2189212,-0.035,-0.290
2189213,-0.045,-0.305
2189214,-0.025,-0.320
2189215,-0.060,-0.275
2189216,-0.055,-0.235
2189217,-0.045,-0.220
2189218,-0.035,-0.200
2189219,-0.015,-0.190
2189220,-0.020,-0.195
2189221,-0.035,-0.175
2189222,-0.030,-0.230
2189223,0.000,-0.245
2189224,-0.020,-0.235
2189225,-0.025,-0.235
2189226,-0.030,-0.190
2189227,-0.005,-0.120
2189228,0.015,-0.105
2189229,0.030,-0.105
2189230,0.065,-0.105
2189231,0.055,-0.075
2189232,0.070,-0.085
2189233,0.095,-0.115
2189234,0.065,-0.105
2189235,0.085,-0.080
2189236,0.055,-0.090
2189237,0.045,-0.125
2189238,0.045,-0.160
2189239,0.045,-0.135
2189240,0.055,-0.110
2189241,0.030,-0.115
2189242,0.040,-0.195
2189243,0.055,-0.150
2189244,0.035,-0.160
2189245,0.025,-0.190
2189246,0.015,-0.200
2189247,0.020,-0.180
2189248,-0.005,-0.170
2189249,0.005,-0.170
2189250,-0.015,-0.190
2189251,0.000,-0.185
2189252,0.000,-0.165
2189253,-0.030,-0.155
2189254,-0.040,-0.155
2189255,-0.050,-0.150
2189256,-0.090,-0.110
2189257,-0.115,-0.095
2189258,-0.110,-0.100
2189259,-0.040,-0.055
2189260,-0.070,-0.030
2189261,-0.120,0.045
2189262,-0.120,0.215
2189263,-0.085,0.535
2189264,-0.010,0.900
2189265,-0.020,1.135
2189266,-0.255,1.250
2189267,-0.635,1.370
2189268,-1.240,1.590
2189269,-1.875,1.845
2189270,-2.420,1.925
2189271,-2.740,1.900
2189272,-2.755,1.870
2189273,-2.585,1.785
2189274,-2.390,1.665
2189275,-2.245,1.605
2189276,-2.125,1.480
2189277,-1.990,1.360
2189278,-1.805,1.150
2189279,-1.675,1.095
2189280,-1.560,1.130
2189281,-1.395,1.105
2189282,-1.240,0.755
2189283,-1.125,0.115
2189284,-1.020,-0.480
2189285,-0.930,-0.765
2189286,-0.800,-0.820
2189287,-0.680,-0.785
2189288,-0.555,-0.700
2189289,-0.430,-0.555
2189290,-0.280,-0.500
2189291,-0.110,-0.460
2189292,0.070,-0.440
2189293,0.240,-0.385
2189294,0.330,-0.395
2189295,0.380,-0.385
2189296,0.425,-0.380
2189297,0.460,-0.365
2189298,0.435,-0.325
2189299,0.460,-0.285
2189300,0.505,-0.230
2189301,0.530,-0.250
2189302,0.560,-0.290
2189303,0.545,-0.300
2189304,0.590,-0.280
2189305,0.610,-0.260
2189306,0.605,-0.305
2189307,0.635,-0.305
2189308,0.645,-0.250
2189309,0.695,-0.215
2189310,0.715,-0.190
2189311,0.720,-0.155
2189312,0.775,-0.040
2189313,0.825,-0.020
2189314,0.825,-0.080
2189315,0.825,-0.280
2189316,0.860,-0.405
2189317,0.855,-0.410
2189318,0.910,-0.325
2189319,0.945,-0.145
2189320,0.975,-0.105
2189321,0.960,-0.020
2189322,0.980,0.120
2189323,0.975,0.065
2189324,0.960,-0.110
2189325,0.935,-0.360
2189326,0.980,-0.640
2189327,0.975,-0.705
2189328,0.995,-0.570
2189329,1.005,-0.360
2189330,1.040,-0.255
2189331,1.050,-0.230
2189332,1.030,-0.240
2189333,0.980,-0.235
2189334,0.925,-0.185
2189335,0.840,-0.125
2189336,0.785,-0.065
2189337,0.750,-0.030
2189338,0.715,0.020
2189339,0.690,0.025
2189340,0.650,0.015
2189341,0.570,-0.100
2189342,0.525,-0.165
2189343,0.485,-0.180
2189344,0.455,-0.110
2189345,0.415,-0.055
2189346,0.395,0.035
2189347,0.370,0.110
2189348,0.335,0.170
2189349,0.275,0.140
2189350,0.245,-0.110
2189351,0.240,-0.305
2189352,0.150,-0.345
2189353,0.125,-0.465
2189354,0.120,-0.590
2189355,0.150,-0.710
2189356,0.190,-0.730
2189357,0.225,-0.690
2189358,0.260,-0.530
2189359,0.275,-0.395
2189360,0.280,-0.350
2189361,0.265,-0.455
2189362,0.250,-0.540
2189363,0.235,-0.585
2189364,0.235,-0.545
2189365,0.260,-0.525
2189366,0.275,-0.490
2189367,0.265,-0.475
2189368,0.245,-0.480
2189369,0.205,-0.470
2189370,0.185,-0.395
2189371,0.160,-0.320
2189372,0.130,-0.320
2189373,0.130,-0.385
2189374,0.065,-0.510
2189375,0.075,-0.535
2189376,0.040,-0.490
2189377,0.045,-0.480
2189378,0.055,-0.555
2189379,0.070,-0.630
2189380,0.020,-0.640
2189381,0.030,-0.665
2189382,0.000,-0.650
2189383,0.040,-0.530
2189384,0.150,-0.465
2189385,0.195,-0.425
2189386,0.235,-0.435
2189387,0.195,-0.485
2189388,0.170,-0.500
2189389,0.165,-0.465
2189390,0.170,-0.455
2189391,0.155,-0.435
2189392,0.180,-0.400
2189393,0.160,-0.420
2189394,0.170,-0.420
2189395,0.160,-0.320
2189396,0.185,-0.285
2189397,0.175,-0.285
2189398,0.185,-0.305
2189399,0.180,-0.370
2189400,0.230,-0.395
2189401,0.215,-0.375
2189402,0.205,-0.295
2189403,0.235,0.010
2189404,0.225,0.275
2189405,0.170,0.155
2189406,0.170,-0.125
2189407,0.160,-0.380
2189408,0.145,-0.425
2189409,0.140,-0.300
2189410,0.135,0.025
2189411,0.165,0.345
2189412,0.195,0.475
2189413,0.195,0.505
2189414,0.195,0.530
2189415,0.185,0.565
2189416,0.150,0.565
2189417,0.085,0.600
2189418,0.075,0.675
2189419,0.040,0.715
2189420,0.000,0.660
2189421,-0.015,0.520
2189422,-0.025,0.390
2189423,-0.035,0.400
2189424,-0.055,0.480
2189425,-0.060,0.605
2189426,-0.025,0.685
2189427,-0.005,0.775
2189428,-0.035,0.705
2189429,-0.015,0.540
2189430,-0.025,0.535
2189431,-0.025,0.635
2189432,-0.025,0.805
2189433,0.020,0.940
2189434,-0.010,0.840
2189435,-0.025,0.640
2189436,-0.040,0.515
2189437,-0.035,0.585
2189438,-0.005,0.800
2189439,0.010,0.950
2189440,0.055,0.965
2189441,0.060,0.885
2189442,0.045,0.895
2189443,0.070,1.005
2189444,0.100,1.005
2189445,0.115,0.870
2189446,0.090,0.860
2189447,0.105,0.930
2189448,0.135,0.910
2189449,0.150,0.925
2189450,0.190,0.955
2189451,0.135,0.895
2189452,0.135,0.800
2189453,0.135,0.650
2189454,0.150,0.565
2189455,0.115,0.605
2189456,0.075,0.605
2189457,0.065,0.625
2189458,0.080,0.725
2189459,0.070,0.865
2189460,0.045,0.945
2189461,0.020,1.055
2189462,0.015,1.005
2189463,-0.005,0.875
2189464,-0.035,0.940
2189465,-0.040,1.280
2189466,0.045,1.565
2189467,0.095,1.645
2189468,0.080,1.620
2189469,-0.130,1.840
2189470,-0.635,2.305
2189471,-1.280,2.685
2189472,-1.850,2.720
2189473,-2.385,2.505
2189474,-2.715,2.425
2189475,-2.720,2.500
2189476,-2.565,2.530
2189477,-2.420,2.495
2189478,-2.240,2.420
2189479,-2.085,2.305
2189480,-1.930,2.145
2189481,-1.740,2.060
2189482,-1.595,1.975
2189483,-1.500,1.875
2189484,-1.405,1.755
2189485,-1.255,1.380
2189486,-1.145,0.865
2189487,-1.055,0.430
2189488,-0.980,0.235
2189489,-0.885,0.235
2189490,-0.745,0.255
2189491,-0.595,0.345
2189492,-0.435,0.460
2189493,-0.310,0.565
2189494,-0.135,0.570
2189495,-0.005,0.580
2189496,0.170,0.595
2189497,0.295,0.645
2189498,0.365,0.635
2189499,0.420,0.635
2189500,0.485,0.655
2189501,0.510,0.690
2189502,0.545,0.695
2189503,0.570,0.730
2189504,0.545,0.780
2189505,0.560,0.735
2189506,0.575,0.705
2189507,0.545,0.805
2189508,0.475,0.815
2189509,0.455,0.680
2189510,0.495,0.530
2189511,0.510,0.410
2189512,0.470,0.420
2189513,0.460,0.490
2189514,0.525,0.540
2189515,0.585,0.605
2189516,0.620,0.635
2189517,0.580,0.725
2189518,0.655,0.740
2189519,0.730,0.765
2189520,0.750,0.765
2189521,0.765,0.720
2189522,0.805,0.725
2189523,0.815,0.700
2189524,0.830,0.700
2189525,0.805,0.725
2189526,0.850,0.800
2189527,0.895,0.835
2189528,0.945,0.870
2189529,0.970,0.870
2189530,0.930,0.930
2189531,0.900,0.940
2189532,0.875,0.945
2189533,0.855,0.960
2189534,0.840,0.975
2189535,0.830,0.960
2189536,0.770,0.970
2189537,0.740,0.950
2189538,0.710,0.985
2189539,0.660,1.005
2189540,0.590,0.990
2189541,0.575,0.995
2189542,0.525,1.015
2189543,0.485,1.005
2189544,0.460,1.015
2189545,0.420,1.035
2189546,0.400,0.995
2189547,0.380,0.945
2189548,0.310,0.920
2189549,0.290,0.910
2189550,0.275,0.920
2189551,0.190,0.925
2189552,0.155,0.905
2189553,0.120,0.895
2189554,0.100,0.865
2189555,0.080,0.805
2189556,0.070,0.800
2189557,0.030,0.745
2189558,0.035,0.540
2189559,0.070,0.150
2189560,0.090,-0.045
2189561,0.060,-0.025
2189562,0.005,-0.055
2189563,-0.005,-0.095
2189564,0.010,-0.120
2189565,0.000,-0.110
2189566,-0.040,-0.115
2189567,-0.055,-0.120
2189568,-0.025,-0.135
2189569,0.025,-0.140
2189570,0.030,-0.160
2189571,0.020,-0.165
2189572,0.005,-0.155
2189573,0.070,-0.150
2189574,0.125,-0.120
2189575,0.100,-0.140
2189576,0.050,-0.170
2189577,0.015,-0.195
2189578,-0.025,-0.215
2189579,-0.065,-0.210
2189580,-0.065,-0.220
2189581,-0.030,-0.225
2189582,-0.040,-0.190
2189583,-0.025,-0.240
2189584,0.000,-0.270
2189585,0.010,-0.265
2189586,0.055,-0.215
2189587,0.060,-0.160
2189588,0.045,-0.120
2189589,0.060,-0.105
2189590,0.090,-0.130
2189591,0.070,-0.120
2189592,0.035,-0.100
2189593,0.015,-0.105
2189594,-0.010,-0.075
2189595,-0.040,-0.020
2189596,-0.030,-0.035
2189597,-0.040,-0.045
2189598,-0.035,-0.065
2189599,-0.040,-0.075
2189600,-0.050,-0.070
2189601,-0.045,-0.060
2189602,-0.010,-0.025
2189603,-0.010,-0.040
2189604,-0.020,-0.045
2189605,-0.020,0.040
2189606,-0.030,0.130
2189607,-0.010,0.075
2189608,0.045,-0.050
2189609,0.035,-0.105
2189610,0.015,-0.095
2189611,-0.025,-0.100
2189612,-0.055,-0.155
2189613,-0.040,-0.185
2189614,0.000,-0.165
2189615,-0.015,-0.165
2189616,-0.035,-0.175
2189617,-0.010,-0.205
2189618,0.000,-0.215
2189619,0.010,-0.230
2189620,-0.035,-0.235
2189621,-0.035,-0.180
2189622,-0.035,-0.135
2189623,0.000,-0.010
2189624,0.015,0.190
2189625,0.040,0.475
2189626,0.065,0.870
2189627,0.060,1.230
2189628,-0.120,1.410
2189629,-0.420,1.535
2189630,-0.840,1.650
2189631,-1.390,1.805
2189632,-1.905,1.880
2189633,-2.310,1.815
2189634,-2.550,1.700
2189635,-2.500,1.585
2189636,-2.355,1.445
2189637,-2.215,1.265
2189638,-2.105,1.075
2189639,-1.965,0.890
2189640,-1.800,0.735
2189641,-1.635,0.605
2189642,-1.510,0.465
2189643,-1.420,0.395
2189644,-1.360,0.315
2189645,-1.280,0.135
2189646,-1.205,-0.190
2189647,-1.100,-0.495
2189648,-0.995,-0.705
2189649,-0.900,-0.745
2189650,-0.795,-0.790
2189651,-0.665,-0.765
2189652,-0.535,-0.735
2189653,-0.390,-0.670
2189654,-0.265,-0.640
2189655,-0.130,-0.600
2189656,0.000,-0.560
2189657,0.145,-0.575
2189658,0.235,-0.585
2189659,0.280,-0.575
2189660,0.335,-0.560
2189661,0.365,-0.540
2189662,0.370,-0.510
2189663,0.375,-0.540
2189664,0.410,-0.575
2189665,0.435,-0.550
2189666,0.425,-0.515
2189667,0.480,-0.520
2189668,0.525,-0.500
2189669,0.505,-0.485
2189670,0.510,-0.490
2189671,0.525,-0.495
2189672,0.565,-0.505
2189673,0.610,-0.515
2189674,0.610,-0.490
2189675,0.665,-0.470
2189676,0.700,-0.440
2189677,0.730,-0.460
2189678,0.735,-0.490
2189679,0.710,-0.470
2189680,0.705,-0.500
2189681,0.705,-0.500
2189682,0.750,-0.500
2189683,0.780,-0.490
2189684,0.800,-0.515
2189685,0.805,-0.500
2189686,0.825,-0.540
2189687,0.885,-0.505
2189688,0.885,-0.480
2189689,0.880,-0.470
2189690,0.885,-0.465
2189691,0.840,-0.450
2189692,0.850,-0.440
2189693,0.820,-0.410
2189694,0.835,-0.400
2189695,0.825,-0.355
2189696,0.800,-0.355
2189697,0.765,-0.315
2189698,0.750,-0.275
2189699,0.715,-0.270
2189700,0.675,-0.245
2189701,0.665,-0.275
2189702,0.660,-0.315
2189703,0.630,-0.345
2189704,0.540,-0.355
2189705,0.470,-0.330
2189706,0.435,-0.310
2189707,0.385,-0.345
2189708,0.390,-0.355
2189709,0.380,-0.340
2189710,0.400,-0.365
2189711,0.370,-0.390
2189712,0.315,-0.410
2189713,0.275,-0.425
2189714,0.270,-0.430
2189715,0.230,-0.460
2189716,0.205,-0.470
2189717,0.145,-0.490
2189718,0.155,-0.510
2189719,0.140,-0.515
2189720,0.150,-0.520
2189721,0.155,-0.530
2189722,0.160,-0.530
2189723,0.170,-0.545
2189724,0.170,-0.560
2189725,0.175,-0.585
2189726,0.155,-0.585
2189727,0.175,-0.580
2189728,0.170,-0.580
2189729,0.190,-0.605
2189730,0.200,-0.640
2189731,0.200,-0.640
2189732,0.185,-0.620
2189733,0.180,-0.635
2189734,0.205,-0.665
2189735,0.185,-0.665
2189736,0.190,-0.675
2189737,0.155,-0.700
2189738,0.155,-0.735
2189739,0.155,-0.740
2189740,0.145,-0.745
2189741,0.125,-0.730
2189742,0.125,-0.700
2189743,0.100,-0.680
2189744,0.125,-0.680
2189745,0.135,-0.685
2189746,0.135,-0.715
2189747,0.130,-0.730
2189748,0.145,-0.735
2189749,0.140,-0.730
2189750,0.145,-0.745
2189751,0.145,-0.720
2189752,0.135,-0.710
2189753,0.110,-0.745
2189754,0.105,-0.715
2189755,0.115,-0.725
2189756,0.085,-0.740
2189757,0.110,-0.745
2189758,0.090,-0.765
2189759,0.055,-0.775
2189760,0.080,-0.730
2189761,0.070,-0.710
2189762,0.060,-0.730
2189763,0.055,-0.750
2189764,0.050,-0.720
2189765,0.075,-0.735
2189766,0.070,-0.745
2189767,0.095,-0.740
2189768,0.110,-0.725
2189769,0.165,-0.685
2189770,0.180,-0.670
2189771,0.175,-0.680
2189772,0.135,-0.675
2189773,0.120,-0.650
2189774,0.125,-0.675
2189775,0.120,-0.665
2189776,0.130,-0.655
2189777,0.145,-0.600
2189778,0.150,-0.495
2189779,0.125,-0.365
2189780,0.160,-0.165
2189781,0.210,0.150
2189782,0.305,0.540
2189783,0.260,0.785
2189784,0.020,0.900
2189785,-0.355,1.005
2189786,-0.930,1.135
2189787,-1.510,1.270
2189788,-1.995,1.365
2189789,-2.415,1.330
2189790,-2.585,1.285
2189791,-2.535,1.220
2189792,-2.370,1.100
2189793,-2.165,0.990
2189794,-2.020,0.885
2189795,-1.905,0.735
2189796,-1.755,0.565
2189797,-1.580,0.435
2189798,-1.465,0.340
2189799,-1.360,0.260
2189800,-1.250,0.120
2189801,-1.140,-0.175
2189802,-1.035,-0.635
2189803,-0.945,-0.980
2189804,-0.850,-1.135
2189805,-0.745,-1.245
2189806,-0.680,-1.290
2189807,-0.565,-1.225
2189808,-0.435,-1.180
2189809,-0.285,-1.145
2189810,-0.135,-1.080
2189811,0.020,-1.030
2189812,0.195,-0.935
2189813,0.330,-0.925
2189814,0.400,-0.955
2189815,0.470,-0.935
2189816,0.505,-0.905
2189817,0.540,-0.895
2189818,0.540,-0.875
2189819,0.550,-0.865
2189820,0.590,-0.835
2189821,0.650,-0.780
2189822,0.700,-0.770
2189823,0.715,-0.780
2189824,0.770,-0.775
2189825,0.800,-0.750
2189826,0.815,-0.715
2189827,0.835,-0.725
2189828,0.875,-0.735
2189829,0.905,-0.775
2189830,0.930,-0.810
2189831,0.995,-0.780
2189832,0.990,-0.805
2189833,1.000,-0.810
2189834,1.015,-0.820
2189835,1.000,-0.875
2189836,1.000,-0.870
2189837,1.000,-0.875
2189838,1.010,-0.875
2189839,1.055,-0.895
2189840,1.070,-0.905
2189841,1.080,-0.855
2189842,1.060,-0.860
2189843,1.050,-0.830
2189844,1.065,-0.840
2189845,1.050,-0.840
2189846,1.075,-0.835
2189847,1.040,-0.815
2189848,1.040,-0.745
2189849,1.040,-0.715
2189850,0.990,-0.665
2189851,0.960,-0.640
2189852,0.935,-0.600
2189853,0.915,-0.545
2189854,0.860,-0.485
2189855,0.835,-0.450
2189856,0.780,-0.435
2189857,0.710,-0.435
2189858,0.715,-0.435
2189859,0.660,-0.410
2189860,0.585,-0.410
2189861,0.595,-0.385
2189862,0.550,-0.380
2189863,0.495,-0.410
2189864,0.445,-0.460
2189865,0.425,-0.470
2189866,0.390,-0.445
2189867,0.380,-0.435
2189868,0.360,-0.515
2189869,0.330,-0.600
2189870,0.305,-0.615
2189871,0.285,-0.590
2189872,0.275,-0.600
2189873,0.265,-0.610
2189874,0.260,-0.605
2189875,0.260,-0.580
2189876,0.195,-0.600
2189877,0.175,-0.600
2189878,0.190,-0.600
2189879,0.190,-0.640
2189880,0.150,-0.670
2189881,0.140,-0.720
2189882,0.160,-0.720
2189883,0.170,-0.715
2189884,0.150,-0.710
2189885,0.170,-0.730
2189886,0.155,-0.735
2189887,0.135,-0.745
2189888,0.150,-0.735
2189889,0.135,-0.695
2189890,0.135,-0.670
2189891,0.125,-0.670
2189892,0.135,-0.670
2189893,0.160,-0.670
2189894,0.155,-0.695
2189895,0.185,-0.685
2189896,0.185,-0.680
2189897,0.190,-0.690
2189898,0.215,-0.700
2189899,0.205,-0.665
2189900,0.165,-0.615
2189901,0.165,-0.585
2189902,0.150,-0.625
2189903,0.135,-0.675
2189904,0.135,-0.705
2189905,0.130,-0.715
2189906,0.185,-0.695
2189907,0.210,-0.685
2189908,0.230,-0.680
2189909,0.250,-0.690
2189910,0.235,-0.655
2189911,0.170,-0.655
2189912,0.130,-0.650
2189913,0.110,-0.635
2189914,0.105,-0.655
2189915,0.105,-0.680
2189916,0.115,-0.695
2189917,0.115,-0.715
2189918,0.090,-0.705
2189919,0.055,-0.720
2189920,0.055,-0.735
2189921,0.065,-0.705
2189922,0.035,-0.680
2189923,0.050,-0.675
2189924,0.050,-0.670
2189925,0.035,-0.625
2189926,0.055,-0.565
2189927,0.075,-0.545
2189928,0.100,-0.510
2189929,0.085,-0.510
2189930,0.060,-0.475
2189931,0.060,-0.480
2189932,0.040,-0.465
2189933,0.045,-0.465
2189934,0.090,-0.535
2189935,0.105,-0.580
2189936,0.105,-0.565
2189937,0.090,-0.545
2189938,0.115,-0.545
2189939,0.165,-0.580
2189940,0.170,-0.565
2189941,0.150,-0.545
2189942,0.105,-0.495
2189943,0.120,-0.480
2189944,0.160,-0.495
2189945,0.160,-0.510
2189946,0.155,-0.490
2189947,0.170,-0.460
2189948,0.155,-0.400
2189949,0.155,-0.400
2189950,0.165,-0.400
2189951,0.185,-0.415
2189952,0.140,-0.330
2189953,0.135,-0.230
2189954,0.180,-0.070
2189955,0.255,0.190
2189956,0.270,0.405
2189957,0.075,0.545
2189958,-0.365,0.705
2189959,-1.035,0.955
2189960,-1.690,1.170
2189961,-2.250,1.250
2189962,-2.620,1.255
2189963,-2.710,1.245
2189964,-2.580,1.185
2189965,-2.405,1.120
2189966,-2.215,1.050
2189967,-2.055,0.920
2189968,-1.905,0.780
2189969,-1.750,0.670
2189970,-1.575,0.620
2189971,-1.460,0.560
2189972,-1.345,0.445
2189973,-1.210,0.240
2189974,-1.105,-0.100
2189975,-1.020,-0.520
2189976,-0.955,-0.825
2189977,-0.835,-0.950
2189978,-0.735,-1.020
2189979,-0.630,-0.965
2189980,-0.480,-0.895
2189981,-0.305,-0.835
2189982,-0.085,-0.805
2189983,0.015,-0.750
2189984,0.205,-0.710
2189985,0.395,-0.695
2189986,0.510,-0.690
2189987,0.590,-0.685
2189988,0.595,-0.650
2189989,0.625,-0.640
2189990,0.650,-0.680
2189991,0.620,-0.685
2189992,0.640,-0.675
2189993,0.650,-0.685
2189994,0.675,-0.705
2189995,0.695,-0.675
2189996,0.700,-0.705
2189997,0.690,-0.715
2189998,0.690,-0.715
2189999,0.705,-0.665
2190000,0.750,-0.620
2190001,0.785,-0.585
2190002,0.830,-0.595
2190003,0.830,-0.600
2190004,0.870,-0.580
2190005,0.885,-0.580
2190006,0.940,-0.640
2190007,0.980,-0.685
2190008,1.015,-0.670
2190009,1.010,-0.610
2190010,1.030,-0.625
2190011,1.020,-0.650
2190012,1.020,-0.665
2190013,1.040,-0.680
2190014,1.085,-0.685
2190015,1.075,-0.635
2190016,1.055,-0.570
2190017,1.045,-0.540
2190018,1.025,-0.570
2190019,1.000,-0.575
2190020,0.960,-0.570
2190021,0.915,-0.515
2190022,0.895,-0.460
2190023,0.850,-0.400
2190024,0.835,-0.340
2190025,0.800,-0.340
2190026,0.740,-0.350
2190027,0.695,-0.355
2190028,0.660,-0.405
2190029,0.565,-0.410
2190030,0.505,-0.400
2190031,0.455,-0.400
2190032,0.405,-0.365
2190033,0.345,-0.320
2190034,0.250,-0.315
2190035,0.230,-0.375
2190036,0.220,-0.475
2190037,0.195,-0.545
2190038,0.175,-0.515
2190039,0.130,-0.500
2190040,0.105,-0.555
2190041,0.120,-0.550
2190042,0.125,-0.560
2190043,0.115,-0.550
2190044,0.080,-0.600
2190045,0.075,-0.555
2190046,0.100,-0.515
2190047,0.090,-0.510
2190048,0.085,-0.550
2190049,0.070,-0.610
2190050,0.065,-0.635
2190051,0.085,-0.625
2190052,0.070,-0.640
2190053,0.070,-0.640
2190054,0.050,-0.670
2190055,0.070,-0.735
2190056,0.060,-0.755
2190057,0.040,-0.745
2190058,-0.010,-0.725
2190059,-0.040,-0.750
2190060,-0.015,-0.740
2190061,0.000,-0.740
2190062,0.005,-0.775
2190063,0.020,-0.825
2190064,0.000,-0.860
2190065,0.020,-0.870
2190066,0.010,-0.810
2190067,-0.035,-0.825
2190068,-0.045,-0.880
2190069,-0.020,-0.920
2190070,-0.035,-0.880
2190071,-0.080,-0.840
2190072,-0.100,-0.810
2190073,-0.050,-0.780
2190074,0.000,-0.775
2190075,0.000,-0.800
2190076,-0.030,-0.820
2190077,-0.035,-0.820
2190078,-0.060,-0.760
2190079,-0.030,-0.705
2190080,-0.025,-0.735
2190081,-0.015,-0.740
2190082,-0.015,-0.745
2190083,-0.005,-0.670
2190084,-0.055,-0.625
2190085,-0.045,-0.625
2190086,-0.020,-0.640
2190087,-0.035,-0.650
2190088,-0.055,-0.675
2190089,-0.050,-0.685
2190090,-0.010,-0.680
2190091,-0.015,-0.670
2190092,-0.020,-0.655
2190093,-0.030,-0.650
2190094,-0.030,-0.640
2190095,-0.030,-0.655
2190096,-0.080,-0.640
2190097,-0.080,-0.640
2190098,-0.040,-0.665
2190099,-0.025,-0.680
2190100,0.000,-0.660
2190101,0.015,-0.655
2190102,0.000,-0.690
2190103,-0.005,-0.720
2190104,-0.020,-0.740
2190105,-0.040,-0.710
2190106,-0.060,-0.680
2190107,-0.105,-0.670
2190108,-0.085,-0.715
2190109,-0.070,-0.745
2190110,-0.105,-0.740
2190111,-0.150,-0.755
2190112,-0.130,-0.750
2190113,-0.140,-0.705
2190114,-0.140,-0.670
2190115,-0.160,-0.670
2190116,-0.120,-0.675
2190117,-0.115,-0.660
2190118,-0.150,-0.655
2190119,-0.155,-0.630
2190120,-0.160,-0.650
2190121,-0.140,-0.680
2190122,-0.155,-0.670
2190123,-0.180,-0.635
2190124,-0.170,-0.610
2190125,-0.110,-0.630
2190126,-0.120,-0.660
2190127,-0.130,-0.715
2190128,-0.185,-0.730
2190129,-0.185,-0.720
2190130,-0.195,-0.705
2190131,-0.205,-0.705
2190132,-0.185,-0.705
2190133,-0.215,-0.690
2190134,-0.200,-0.695
2190135,-0.170,-0.730
2190136,-0.155,-0.725
2190137,-0.140,-0.770
2190138,-0.100,-0.790
2190139,-0.095,-0.715
2190140,-0.125,-0.675
2190141,-0.120,-0.660
2190142,-0.105,-0.675
2190143,-0.080,-0.670
2190144,-0.050,-0.660
2190145,-0.060,-0.600
2190146,-0.070,-0.570
2190147,-0.070,-0.605
2190148,-0.060,-0.635
2190149,-0.085,-0.660
2190150,-0.095,-0.660
2190151,-0.140,-0.610
2190152,-0.170,-0.615
2190153,-0.180,-0.640
2190154,-0.160,-0.630
2190155,-0.160,-0.595
2190156,-0.170,-0.620
2190157,-0.170,-0.645
2190158,-0.170,-0.605
2190159,-0.190,-0.560
2190160,-0.185,-0.525
2190161,-0.160,-0.520
2190162,-0.165,-0.525
2190163,-0.170,-0.595
2190164,-0.150,-0.635
2190165,-0.175,-0.640
2190166,-0.205,-0.645
2190167,-0.175,-0.630
2190168,-0.145,-0.685
2190169,-0.140,-0.690
2190170,-0.160,-0.680
2190171,-0.155,-0.655
2190172,-0.105,-0.710
2190173,-0.125,-0.760
2190174,-0.180,-0.750
2190175,-0.190,-0.675
2190176,-0.160,-0.650
2190177,-0.140,-0.690
2190178,-0.125,-0.665
2190179,-0.125,-0.665
2190180,-0.160,-0.650
2190181,-0.185,-0.640
2190182,-0.175,-0.605
2190183,-0.110,-0.635
2190184,-0.110,-0.595
2190185,-0.115,-0.580
2190186,-0.105,-0.570
2190187,-0.100,-0.575
2190188,-0.085,-0.640
2190189,-0.130,-0.665
2190190,-0.090,-0.640
2190191,-0.080,-0.585
2190192,-0.120,-0.560
2190193,-0.105,-0.530
2190194,-0.115,-0.530
2190195,-0.120,-0.535
2190196,-0.140,-0.525
2190197,-0.150,-0.565
2190198,-0.155,-0.560
2190199,-0.130,-0.535
2190200,-0.140,-0.535
2190201,-0.145,-0.570
2190202,-0.110,-0.560
2190203,-0.115,-0.520
2190204,-0.095,-0.455
2190205,-0.085,-0.295
2190206,-0.065,-0.115
2190207,0.015,0.215
2190208,0.045,0.585
2190209,-0.075,0.795
2190210,-0.405,0.955
2190211,-0.865,1.080
2190212,-1.500,1.245
2190213,-2.055,1.370
2190214,-2.500,1.340
2190215,-2.770,1.260
2190216,-2.745,1.160
2190217,-2.580,0.980
2190218,-2.405,0.845
2190219,-2.245,0.655
2190220,-2.095,0.470
2190221,-1.930,0.320
2190222,-1.770,0.210
2190223,-1.625,0.125
2190224,-1.490,0.100
2190225,-1.365,-0.105
2190226,-1.300,-0.480
2190227,-1.205,-0.855
2190228,-1.120,-1.100
2190229,-1.050,-1.235
2190230,-0.930,-1.250
2190231,-0.845,-1.130
2190232,-0.720,-1.085
2190233,-0.565,-1.025
2190234,-0.385,-0.980
2190235,-0.235,-0.910
2190236,-0.070,-0.875
2190237,0.070,-0.885
2190238,0.155,-0.880
2190239,0.180,-0.900
2190240,0.215,-0.895
2190241,0.265,-0.910
2190242,0.285,-0.880
2190243,0.295,-0.830
2190244,0.310,-0.780
2190245,0.325,-0.760
2190246,0.350,-0.765
2190247,0.395,-0.780
2190248,0.385,-0.840
2190249,0.395,-0.865
2190250,0.430,-0.925
2190251,0.415,-0.920
2190252,0.440,-0.925
2190253,0.445,-0.905
2190254,0.450,-0.885
2190255,0.520,-0.895
2190256,0.540,-0.900
2190257,0.555,-0.905
2190258,0.565,-0.875
2190259,0.595,-0.860
2190260,0.615,-0.905
2190261,0.635,-0.965
2190262,0.685,-0.970
2190263,0.720,-0.935
2190264,0.745,-0.910
2190265,0.785,-0.915
2190266,0.805,-0.865
2190267,0.830,-0.825
2190268,0.830,-0.820
2190269,0.810,-0.765
2190270,0.835,-0.715
2190271,0.840,-0.700
2190272,0.805,-0.745
2190273,0.775,-0.740
2190274,0.770,-0.685
2190275,0.725,-0.620
2190276,0.700,-0.590
2190277,0.680,-0.555
2190278,0.635,-0.530
2190279,0.580,-0.485
2190280,0.585,-0.470
2190281,0.515,-0.485
2190282,0.455,-0.485
2190283,0.410,-0.495
2190284,0.380,-0.470
2190285,0.315,-0.485
2190286,0.290,-0.510
2190287,0.255,-0.510
2190288,0.220,-0.525
2190289,0.185,-0.560
2190290,0.120,-0.600
2190291,0.085,-0.640
2190292,0.095,-0.615
2190293,0.110,-0.610
2190294,0.085,-0.675
2190295,0.070,-0.720
2190296,0.070,-0.730
2190297,0.055,-0.715
2190298,0.025,-0.710
2190299,0.000,-0.700
2190300,0.010,-0.665
2190301,0.015,-0.650
2190302,0.030,-0.660
2190303,0.015,-0.660
2190304,0.035,-0.665
2190305,0.030,-0.675
2190306,0.020,-0.655
2190307,0.025,-0.650
2190308,0.015,-0.640
2190309,0.005,-0.640
2190310,0.000,-0.685
2190311,0.000,-0.705
2190312,-0.025,-0.720
2190313,-0.040,-0.695
2190314,-0.020,-0.700
2190315,-0.010,-0.695
2190316,-0.040,-0.685
2190317,-0.015,-0.690
2190318,-0.015,-0.740
2190319,0.000,-0.780
2190320,-0.010,-0.765
2190321,-0.025,-0.775
2190322,-0.040,-0.775
2190323,-0.025,-0.755
2190324,-0.020,-0.760
2190325,-0.030,-0.790
2190326,-0.020,-0.810
2190327,-0.015,-0.830
2190328,-0.040,-0.800
2190329,-0.030,-0.775
2190330,-0.050,-0.745
2190331,-0.055,-0.730
2190332,-0.035,-0.765
2190333,-0.040,-0.745
2190334,0.015,-0.730
2190335,0.020,-0.690
2190336,-0.010,-0.695
2190337,-0.070,-0.680
2190338,-0.105,-0.680
2190339,-0.065,-0.665
2190340,-0.055,-0.630
2190341,-0.065,-0.590
2190342,-0.050,-0.570
2190343,-0.040,-0.495
2190344,-0.040,-0.365
2190345,0.000,-0.145
2190346,0.070,0.175
2190347,0.120,0.520
2190348,0.020,0.735
2190349,-0.285,0.940
2190350,-0.835,1.170
2190351,-1.530,1.420
2190352,-2.140,1.545
2190353,-2.585,1.535
2190354,-2.770,1.430
2190355,-2.705,1.355
2190356,-2.540,1.275
2190357,-2.390,1.165
2190358,-2.260,1.005
2190359,-2.120,0.830
2190360,-1.980,0.655
2190361,-1.860,0.475
2190362,-1.730,0.310
2190363,-1.595,0.205
2190364,-1.490,0.070
2190365,-1.370,-0.250
2190366,-1.245,-0.695
2190367,-1.150,-1.035
2190368,-1.065,-1.140
2190369,-0.925,-1.125
2190370,-0.815,-1.035
2190371,-0.680,-0.935
2190372,-0.525,-0.905
2190373,-0.345,-0.815
2190374,-0.125,-0.755
2190375,0.035,-0.745
2190376,0.155,-0.765
2190377,0.255,-0.800
2190378,0.325,-0.760
2190379,0.335,-0.730
2190380,0.385,-0.740
2190381,0.420,-0.740
2190382,0.455,-0.750
2190383,0.480,-0.760
2190384,0.490,-0.780
2190385,0.510,-0.780
2190386,0.510,-0.770
2190387,0.530,-0.770
2190388,0.520,-0.755
2190389,0.500,-0.700
2190390,0.510,-0.660
2190391,0.520,-0.660
2190392,0.570,-0.680
2190393,0.595,-0.670
2190394,0.620,-0.660
2190395,0.675,-0.640
2190396,0.685,-0.655
2190397,0.710,-0.650
2190398,0.720,-0.660
2190399,0.725,-0.665
2190400,0.760,-0.690
2190401,0.790,-0.680
2190402,0.830,-0.605
2190403,0.860,-0.540
2190404,0.840,-0.545
2190405,0.875,-0.595
2190406,0.915,-0.575
2190407,0.940,-0.560
2190408,0.925,-0.545
2190409,0.945,-0.520
2190410,0.940,-0.465
2190411,0.920,-0.440
2190412,0.870,-0.405
2190413,0.885,-0.370
2190414,0.815,-0.330
2190415,0.765,-0.290
2190416,0.705,-0.280
2190417,0.670,-0.285
2190418,0.625,-0.270
2190419,0.560,-0.235
2190420,0.490,-0.245
2190421,0.440,-0.285
2190422,0.380,-0.320
2190423,0.360,-0.320
2190424,0.290,-0.295
2190425,0.220,-0.275
2190426,0.220,-0.325
2190427,0.220,-0.385
2190428,0.195,-0.410
2190429,0.130,-0.430
2190430,0.100,-0.450
2190431,0.080,-0.455
2190432,0.055,-0.465
2190433,0.055,-0.490
2190434,0.035,-0.455
2190435,0.045,-0.435
2190436,0.045,-0.500
2190437,0.055,-0.565
2190438,0.060,-0.580
2190439,0.055,-0.555
2190440,0.035,-0.530
2190441,0.035,-0.540
2190442,0.010,-0.505
2190443,0.075,-0.475
2190444,0.115,-0.495
2190445,0.140,-0.480
2190446,0.120,-0.475
2190447,0.105,-0.500
2190448,0.105,-0.520
2190449,0.065,-0.530
2190450,0.040,-0.485
2190451,0.010,-0.475
2190452,0.005,-0.425
2190453,0.000,-0.440
2190454,-0.030,-0.510
2190455,-0.045,-0.500
2190456,-0.040,-0.480
2190457,-0.060,-0.480
2190458,-0.050,-0.510
2190459,-0.050,-0.545
2190460,-0.020,-0.555
2190461,-0.050,-0.545
2190462,-0.065,-0.520
2190463,-0.085,-0.480
2190464,-0.060,-0.430
2190465,-0.055,-0.425
2190466,-0.095,-0.500
2190467,-0.125,-0.600
2190468,-0.125,-0.640
2190469,-0.140,-0.650
2190470,-0.160,-0.660
2190471,-0.170,-0.630
2190472,-0.150,-0.620
2190473,-0.130,-0.565
2190474,-0.115,-0.540
2190475,-0.130,-0.580
2190476,-0.130,-0.555
2190477,-0.090,-0.435
2190478,-0.105,-0.250
2190479,-0.080,0.030
2190480,-0.010,0.395
2190481,-0.010,0.730
2190482,-0.195,0.920
2190483,-0.560,1.095
2190484,-1.145,1.280
2190485,-1.840,1.450
2190486,-2.370,1.575
2190487,-2.765,1.565
2190488,-2.905,1.510
2190489,-2.855,1.415
2190490,-2.695,1.285
2190491,-2.495,1.210
2190492,-2.285,1.070
2190493,-2.120,0.870
2190494,-1.895,0.660
2190495,-1.665,0.495
2190496,-1.540,0.310
2190497,-1.465,0.210
2190498,-1.335,0.095
2190499,-1.255,-0.235
2190500,-1.165,-0.715
2190501,-1.115,-1.070
2190502,-1.115,-1.210
2190503,-0.990,-1.170
2190504,-0.905,-1.135
2190505,-0.795,-1.055
2190506,-0.685,-0.990
2190507,-0.525,-0.940
2190508,-0.380,-0.900
2190509,-0.230,-0.865
2190510,-0.100,-0.805
2190511,0.030,-0.770
2190512,0.110,-0.740
2190513,0.190,-0.735
2190514,0.245,-0.720
2190515,0.280,-0.705
2190516,0.280,-0.745
2190517,0.325,-0.720
2190518,0.325,-0.695
2190519,0.325,-0.705
2190520,0.350,-0.645
2190521,0.405,-0.640
2190522,0.440,-0.640
2190523,0.465,-0.620
2190524,0.510,-0.630
2190525,0.510,-0.615
2190526,0.525,-0.580
2190527,0.570,-0.570
2190528,0.605,-0.555
2190529,0.610,-0.550
2190530,0.640,-0.555
2190531,0.670,-0.590
2190532,0.700,-0.585
2190533,0.710,-0.560
2190534,0.755,-0.515
2190535,0.785,-0.525
2190536,0.815,-0.505
2190537,0.830,-0.470
2190538,0.865,-0.450
2190539,0.895,-0.470
2190540,0.920,-0.485
2190541,0.955,-0.520
2190542,0.990,-0.505
2190543,0.990,-0.480
2190544,0.945,-0.450
2190545,0.865,-0.450
2190546,0.840,-0.370
2190547,0.800,-0.350
2190548,0.750,-0.285
2190549,0.730,-0.270
2190550,0.700,-0.280
2190551,0.650,-0.290
2190552,0.585,-0.310
2190553,0.540,-0.320
2190554,0.475,-0.265
2190555,0.420,-0.305
2190556,0.320,-0.345
2190557,0.270,-0.355
2190558,0.225,-0.340
2190559,0.165,-0.335
2190560,0.135,-0.360
2190561,0.150,-0.380
2190562,0.115,-0.390
2190563,0.095,-0.395
2190564,0.050,-0.385
2190565,-0.005,-0.420
2190566,-0.030,-0.435
2190567,-0.050,-0.425
2190568,-0.050,-0.445
2190569,-0.060,-0.480
2190570,-0.065,-0.455
2190571,-0.085,-0.465
2190572,-0.100,-0.510
2190573,-0.120,-0.550
2190574,-0.130,-0.555
2190575,-0.170,-0.560
2190576,-0.160,-0.545
2190577,-0.120,-0.570
2190578,-0.090,-0.565
2190579,-0.100,-0.560
2190580,-0.110,-0.560
2190581,-0.080,-0.575
2190582,-0.080,-0.580
2190583,-0.115,-0.585
2190584,-0.125,-0.640
2190585,-0.085,-0.640
2190586,-0.080,-0.670
2190587,-0.120,-0.625
2190588,-0.120,-0.630
2190589,-0.085,-0.610
2190590,-0.120,-0.610
2190591,-0.120,-0.620
2190592,-0.125,-0.625
2190593,-0.130,-0.615
2190594,-0.120,-0.640
2190595,-0.175,-0.655
2190596,-0.200,-0.630
2190597,-0.195,-0.595
2190598,-0.205,-0.565
2190599,-0.175,-0.550
2190600,-0.175,-0.560
2190601,-0.190,-0.580
2190602,-0.220,-0.560
2190603,-0.190,-0.570
2190604,-0.195,-0.570
2190605,-0.175,-0.550
2190606,-0.195,-0.545
2190607,-0.200,-0.550
2190608,-0.185,-0.560
2190609,-0.190,-0.555
2190610,-0.160,-0.560
2190611,-0.150,-0.565
2190612,-0.165,-0.535
2190613,-0.180,-0.545
2190614,-0.200,-0.540
2190615,-0.200,-0.550
2190616,-0.190,-0.595
2190617,-0.225,-0.585
2190618,-0.200,-0.600
2190619,-0.215,-0.600
2190620,-0.245,-0.600
2190621,-0.235,-0.640
2190622,-0.205,-0.655
2190623,-0.205,-0.625
2190624,-0.175,-0.620
2190625,-0.180,-0.630
2190626,-0.180,-0.645
2190627,-0.185,-0.600
2190628,-0.165,-0.600
2190629,-0.170,-0.600
2190630,-0.155,-0.585
2190631,-0.180,-0.590
2190632,-0.200,-0.590
2190633,-0.220,-0.615
2190634,-0.225,-0.630
2190635,-0.260,-0.610
2190636,-0.280,-0.590
2190637,-0.290,-0.595
2190638,-0.270,-0.625
2190639,-0.260,-0.605
2190640,-0.235,-0.585
2190641,-0.255,-0.600
2190642,-0.245,-0.600
2190643,-0.240,-0.580
2190644,-0.215,-0.555
2190645,-0.210,-0.550
2190646,-0.215,-0.560
2190647,-0.190,-0.585
2190648,-0.205,-0.545
2190649,-0.205,-0.490
2190650,-0.240,-0.490
2190651,-0.255,-0.500
2190652,-0.225,-0.535
2190653,-0.185,-0.560
2190654,-0.185,-0.570
2190655,-0.200,-0.590
2190656,-0.200,-0.605
2190657,-0.185,-0.595
2190658,-0.165,-0.615
2190659,-0.175,-0.630
2190660,-0.205,-0.620
2190661,-0.225,-0.580
2190662,-0.185,-0.570
2190663,-0.195,-0.590
2190664,-0.195,-0.575
2190665,-0.215,-0.590
2190666,-0.225,-0.560
2190667,-0.220,-0.505
2190668,-0.220,-0.345
2190669,-0.175,-0.075
2190670,-0.120,0.340
2190671,-0.080,0.745
2190672,-0.135,0.970
2190673,-0.390,1.080
2190674,-0.815,1.140
2190675,-1.370,1.295
2190676,-1.935,1.435
2190677,-2.400,1.475
2190678,-2.735,1.415
2190679,-2.850,1.315
2190680,-2.780,1.200
2190681,-2.630,1.065
2190682,-2.445,0.925
2190683,-2.315,0.805
2190684,-2.210,0.650
2190685,-2.045,0.520
2190686,-1.850,0.405
2190687,-1.770,0.345
2190688,-1.645,0.280
2190689,-1.535,0.200
2190690,-1.420,-0.040
2190691,-1.330,-0.345
2190692,-1.285,-0.665
2190693,-1.195,-0.875
2190694,-1.060,-0.995
2190695,-0.945,-1.040
2190696,-0.835,-1.015
2190697,-0.700,-1.000
2190698,-0.560,-1.010
2190699,-0.450,-0.960
2190700,-0.275,-0.910
2190701,-0.145,-0.865
2190702,-0.005,-0.905
2190703,0.080,-0.930
2190704,0.140,-0.920
2190705,0.155,-0.870
2190706,0.225,-0.845
2190707,0.270,-0.825
2190708,0.240,-0.815
2190709,0.300,-0.795
2190710,0.315,-0.810
2190711,0.330,-0.880
2190712,0.375,-0.900
2190713,0.400,-0.900
2190714,0.410,-0.840
2190715,0.435,-0.840
2190716,0.430,-0.840
2190717,0.480,-0.800
2190718,0.485,-0.805
2190719,0.465,-0.810
2190720,0.465,-0.785
2190721,0.535,-0.765
2190722,0.535,-0.765
2190723,0.585,-0.750
2190724,0.595,-0.780
2190725,0.595,-0.785
2190726,0.615,-0.775
2190727,0.665,-0.775
2190728,0.710,-0.765
2190729,0.715,-0.770
2190730,0.700,-0.780
2190731,0.700,-0.775
2190732,0.755,-0.765
2190733,0.775,-0.790
2190734,0.775,-0.800
2190735,0.785,-0.770
2190736,0.795,-0.760
2190737,0.785,-0.705
2190738,0.790,-0.675
2190739,0.795,-0.655
2190740,0.765,-0.600
2190741,0.735,-0.585
2190742,0.705,-0.555
2190743,0.695,-0.510
2190744,0.695,-0.500
2190745,0.615,-0.470
2190746,0.585,-0.440
2190747,0.535,-0.410
2190748,0.495,-0.395
2190749,0.475,-0.385
2190750,0.425,-0.400
2190751,0.390,-0.450
2190752,0.360,-0.460
2190753,0.315,-0.440
2190754,0.295,-0.410
2190755,0.290,-0.405
2190756,0.255,-0.415
2190757,0.180,-0.470
2190758,0.170,-0.530
2190759,0.110,-0.550
2190760,0.030,-0.595
2190761,-0.005,-0.590
2190762,-0.035,-0.570
2190763,-0.040,-0.585
2190764,-0.050,-0.580
2190765,-0.055,-0.555
2190766,-0.055,-0.600
2190767,-0.090,-0.580
2190768,-0.110,-0.630
2190769,-0.100,-0.635
2190770,-0.110,-0.625
2190771,-0.100,-0.645
2190772,-0.080,-0.655
2190773,-0.060,-0.670
2190774,-0.070,-0.670
2190775,-0.050,-0.670
2190776,-0.040,-0.690
2190777,-0.055,-0.720
2190778,-0.075,-0.755
2190779,-0.050,-0.765
2190780,-0.055,-0.775
2190781,-0.085,-0.760
2190782,-0.050,-0.720
2190783,-0.045,-0.715
2190784,-0.045,-0.720
2190785,-0.030,-0.735
2190786,-0.040,-0.765
2190787,-0.030,-0.760
2190788,-0.025,-0.755
2190789,-0.020,-0.780
2190790,-0.035,-0.785
2190791,0.000,-0.755
2190792,0.000,-0.755
2190793,-0.030,-0.750
2190794,0.000,-0.735
2190795,0.025,-0.700
2190796,0.025,-0.675
2190797,0.025,-0.670
2190798,0.000,-0.705
2190799,-0.005,-0.725
2190800,0.000,-0.710
2190801,0.010,-0.690
2190802,-0.045,-0.660
2190803,-0.080,-0.635
2190804,-0.050,-0.625
2190805,-0.025,-0.635
2190806,-0.045,-0.610
2190807,-0.035,-0.630
2190808,-0.060,-0.650
2190809,-0.085,-0.665
2190810,-0.050,-0.665
2190811,-0.080,-0.630
2190812,-0.100,-0.655
2190813,-0.100,-0.655
2190814,-0.110,-0.695
2190815,-0.145,-0.725
2190816,-0.175,-0.720
2190817,-0.170,-0.700
2190818,-0.150,-0.700
2190819,-0.110,-0.735
2190820,-0.130,-0.745
2190821,-0.160,-0.760
2190822,-0.160,-0.745
2190823,-0.160,-0.725
2190824,-0.175,-0.695
2190825,-0.155,-0.655
2190826,-0.155,-0.660
2190827,-0.140,-0.725
2190828,-0.125,-0.740
2190829,-0.160,-0.715
2190830,-0.160,-0.700
2190831,-0.120,-0.685
2190832,-0.110,-0.640
2190833,-0.120,-0.620
2190834,-0.060,-0.615
2190835,-0.055,-0.675
2190836,-0.095,-0.720
2190837,-0.075,-0.675
2190838,-0.095,-0.630
2190839,-0.075,-0.615
2190840,-0.050,-0.585
2190841,-0.040,-0.575
2190842,-0.050,-0.545
2190843,-0.040,-0.590
2190844,-0.020,-0.600
2190845,-0.060,-0.580
2190846,-0.040,-0.550
2190847,-0.090,-0.540
2190848,-0.085,-0.545
2190849,-0.085,-0.590
2190850,-0.065,-0.590
2190851,-0.085,-0.610
2190852,-0.085,-0.620
2190853,-0.100,-0.635
2190854,-0.095,-0.605
2190855,-0.100,-0.610
2190856,-0.075,-0.600
2190857,-0.095,-0.575
2190858,-0.100,-0.570
2190859,-0.105,-0.565
2190860,-0.130,-0.605
2190861,-0.125,-0.650
2190862,-0.130,-0.670
2190863,-0.120,-0.695
2190864,-0.135,-0.670
2190865,-0.150,-0.665
2190866,-0.105,-0.650
2190867,-0.080,-0.625
2190868,-0.095,-0.600
2190869,-0.155,-0.625
2190870,-0.135,-0.625
2190871,-0.105,-0.590
2190872,-0.095,-0.620
2190873,-0.100,-0.660
2190874,-0.100,-0.700
2190875,-0.100,-0.655
2190876,-0.080,-0.630
2190877,-0.095,-0.575
2190878,-0.110,-0.555
2190879,-0.125,-0.535
2190880,-0.090,-0.585
2190881,-0.070,-0.590
2190882,-0.075,-0.615
2190883,-0.080,-0.570
2190884,-0.060,-0.530
2190885,-0.040,-0.500
2190886,-0.035,-0.465
2190887,-0.005,-0.420
2190888,-0.030,-0.290
2190889,0.000,-0.105
2190890,0.060,0.155
2190891,0.120,0.415
2190892,0.035,0.590
2190893,-0.250,0.720
2190894,-0.690,0.880
2190895,-1.340,1.120
2190896,-1.990,1.295
2190897,-2.485,1.390
2190898,-2.770,1.390
2190899,-2.795,1.325
2190900,-2.665,1.255
2190901,-2.525,1.185
2190902,-2.380,1.130
2190903,-2.235,1.005
2190904,-2.100,0.880
2190905,-1.870,0.790
2190906,-1.755,0.690
2190907,-1.655,0.510
2190908,-1.555,0.370
2190909,-1.410,0.195
2190910,-1.290,-0.080
2190911,-1.180,-0.500
2190912,-1.120,-0.815
2190913,-1.005,-0.990
2190914,-0.865,-1.005
2190915,-0.795,-0.995
2190916,-0.740,-0.910
2190917,-0.590,-0.825
2190918,-0.440,-0.745
2190919,-0.250,-0.735
2190920,-0.090,-0.710
2190921,0.075,-0.695
2190922,0.190,-0.665
2190923,0.250,-0.655
2190924,0.290,-0.650
2190925,0.345,-0.640
2190926,0.380,-0.660
2190927,0.395,-0.640
2190928,0.425,-0.625
2190929,0.450,-0.665
2190930,0.445,-0.695
2190931,0.470,-0.715
2190932,0.510,-0.665
2190933,0.510,-0.620
2190934,0.505,-0.625
2190935,0.535,-0.615
2190936,0.550,-0.635
2190937,0.530,-0.610
2190938,0.575,-0.550
2190939,0.600,-0.560
2190940,0.650,-0.575
2190941,0.710,-0.605
2190942,0.735,-0.610
2190943,0.740,-0.625
2190944,0.785,-0.610
2190945,0.850,-0.615
2190946,0.865,-0.635
2190947,0.920,-0.635
2190948,0.935,-0.610
2190949,0.910,-0.545
2190950,0.940,-0.525
2190951,1.000,-0.535
2190952,1.045,-0.515
2190953,1.040,-0.485
2190954,1.045,-0.435
2190955,1.035,-0.425
2190956,1.055,-0.440
2190957,1.040,-0.400
2190958,1.025,-0.355
2190959,1.015,-0.335
2190960,0.980,-0.335
2190961,0.940,-0.315
2190962,0.850,-0.305
2190963,0.800,-0.265
2190964,0.770,-0.225
2190965,0.750,-0.190
2190966,0.695,-0.195
2190967,0.625,-0.195
2190968,0.575,-0.160
2190969,0.535,-0.145
2190970,0.465,-0.195
2190971,0.400,-0.230
2190972,0.355,-0.225
2190973,0.315,-0.220
2190974,0.290,-0.205
2190975,0.230,-0.215
2190976,0.190,-0.265
2190977,0.190,-0.235
2190978,0.155,-0.260
2190979,0.155,-0.295
2190980,0.140,-0.330
2190981,0.105,-0.320
2190982,0.120,-0.330
2190983,0.115,-0.325
2190984,0.075,-0.315
2190985,0.065,-0.320
2190986,0.085,-0.330
2190987,0.120,-0.385
2190988,0.125,-0.410
2190989,0.110,-0.420
2190990,0.060,-0.420
2190991,0.010,-0.385
2190992,-0.020,-0.385
2190993,-0.020,-0.405
2190994,0.010,-0.370
2190995,0.030,-0.340
2190996,0.000,-0.325
2190997,0.005,-0.370
2190998,-0.020,-0.390
2190999,0.000,-0.415
2191000,-0.030,-0.470
2191001,-0.035,-0.450
2191002,-0.035,-0.375
2191003,-0.035,-0.400
2191004,0.010,-0.435
2191005,-0.005,-0.470
2191006,-0.030,-0.450
2191007,0.000,-0.435
2191008,0.030,-0.450
2191009,0.025,-0.470
2191010,0.000,-0.545
2191011,-0.020,-0.585
2191012,-0.030,-0.555
2191013,-0.040,-0.570
2191014,-0.040,-0.580
2191015,0.005,-0.565
2191016,0.000,-0.570
2191017,-0.015,-0.570
2191018,-0.035,-0.540
2191019,-0.020,-0.530
2191020,-0.025,-0.555
2191021,-0.005,-0.595
2191022,0.005,-0.585
2191023,-0.030,-0.550
2191024,-0.050,-0.565
2191025,0.015,-0.580
2191026,0.020,-0.600
2191027,-0.010,-0.575
2191028,-0.025,-0.525
2191029,-0.055,-0.495
2191030,-0.050,-0.470
2191031,-0.070,-0.455
2191032,-0.090,-0.450
2191033,-0.075,-0.430
2191034,-0.055,-0.430
2191035,-0.065,-0.415
2191036,-0.070,-0.400
2191037,-0.080,-0.465
2191038,-0.125,-0.545
2191039,-0.150,-0.560
2191040,-0.120,-0.525
2191041,-0.130,-0.510
2191042,-0.115,-0.480
2191043,-0.125,-0.450
2191044,-0.130,-0.465
2191045,-0.120,-0.505
2191046,-0.140,-0.560
2191047,-0.145,-0.550
2191048,-0.185,-0.550
2191049,-0.190,-0.530
2191050,-0.225,-0.555
2191051,-0.190,-0.540
2191052,-0.145,-0.505
2191053,-0.135,-0.480
2191054,-0.165,-0.440
2191055,-0.180,-0.380
2191056,-0.135,-0.410
2191057,-0.135,-0.480
2191058,-0.100,-0.520
2191059,-0.085,-0.505
2191060,-0.100,-0.445
2191061,-0.130,-0.430
2191062,-0.145,-0.460
2191063,-0.110,-0.480
2191064,-0.110,-0.480
2191065,-0.060,-0.420
2191066,-0.075,-0.365
2191067,-0.110,-0.335
2191068,-0.115,-0.335
2191069,-0.085,-0.390
2191070,-0.065,-0.465
2191071,-0.110,-0.480
2191072,-0.125,-0.465
2191073,-0.130,-0.420
2191074,-0.140,-0.410
2191075,-0.155,-0.390
2191076,-0.170,-0.375
2191077,-0.155,-0.320
2191078,-0.155,-0.360
2191079,-0.185,-0.445
2191080,-0.215,-0.520
2191081,-0.205,-0.510
2191082,-0.210,-0.485
2191083,-0.220,-0.470
2191084,-0.200,-0.485
2191085,-0.160,-0.460
2191086,-0.200,-0.420
2191087,-0.215,-0.440
2191088,-0.255,-0.455
2191089,-0.230,-0.470
2191090,-0.235,-0.425
2191091,-0.235,-0.405
2191092,-0.245,-0.355
2191093,-0.200,-0.345
2191094,-0.200,-0.345
2191095,-0.185,-0.355
2191096,-0.160,-0.415
2191097,-0.180,-0.410
2191098,-0.155,-0.390
2191099,-0.170,-0.445
2191100,-0.180,-0.450
2191101,-0.160,-0.400
2191102,-0.170,-0.335
2191103,-0.195,-0.345
2191104,-0.205,-0.260
2191105,-0.190,-0.095
2191106,-0.150,0.110
2191107,-0.120,0.470
2191108,-0.020,0.920
2191109,-0.030,1.210
2191110,-0.270,1.350
2191111,-0.680,1.455
2191112,-1.285,1.605
2191113,-1.890,1.760
2191114,-2.430,1.765
2191115,-2.730,1.635
2191116,-2.740,1.495
2191117,-2.605,1.345
2191118,-2.395,1.210
2191119,-2.275,1.010
2191120,-2.140,0.785
2191121,-1.925,0.640
2191122,-1.780,0.545
2191123,-1.705,0.425
2191124,-1.580,0.315
2191125,-1.470,0.130
2191126,-1.345,-0.190
2191127,-1.265,-0.540
2191128,-1.195,-0.765
2191129,-1.125,-0.840
2191130,-1.035,-0.840
2191131,-0.870,-0.800
2191132,-0.710,-0.700
2191133,-0.545,-0.595
2191134,-0.420,-0.515
2191135,-0.245,-0.480
2191136,-0.070,-0.530
2191137,0.050,-0.570
2191138,0.130,-0.595
2191139,0.205,-0.585
2191140,0.220,-0.570
2191141,0.235,-0.495
2191142,0.270,-0.450
2191143,0.300,-0.470
2191144,0.325,-0.445
2191145,0.360,-0.420
2191146,0.385,-0.440
2191147,0.350,-0.410
2191148,0.325,-0.375
2191149,0.340,-0.345
2191150,0.370,-0.325
2191151,0.380,-0.340
2191152,0.440,-0.380
2191153,0.425,-0.415
2191154,0.470,-0.445
2191155,0.490,-0.360
2191156,0.495,-0.330
2191157,0.520,-0.350
2191158,0.505,-0.315
2191159,0.510,-0.290
2191160,0.530,-0.320
2191161,0.560,-0.350
2191162,0.605,-0.365
2191163,0.615,-0.365
2191164,0.670,-0.335
2191165,0.715,-0.305
2191166,0.790,-0.295
2191167,0.810,-0.255
2191168,0.845,-0.190
2191169,0.840,-0.200
2191170,0.845,-0.220
2191171,0.870,-0.205
2191172,0.860,-0.230
2191173,0.850,-0.185
2191174,0.845,-0.175
2191175,0.835,-0.110
2191176,0.795,-0.030
2191177,0.780,0.005
2191178,0.695,-0.025
2191179,0.655,-0.040
2191180,0.630,-0.090
2191181,0.540,-0.075
2191182,0.505,-0.025
2191183,0.495,0.020
2191184,0.415,0.015
2191185,0.380,-0.005
2191186,0.335,-0.020
2191187,0.250,-0.065
2191188,0.180,-0.100
2191189,0.165,-0.150
2191190,0.105,-0.190
2191191,0.090,-0.200
2191192,0.050,-0.230
2191193,0.010,-0.215
2191194,-0.020,-0.215
2191195,-0.025,-0.245
2191196,-0.050,-0.295
2191197,-0.050,-0.315
2191198,-0.085,-0.300
2191199,-0.095,-0.250
2191200,-0.070,-0.200
2191201,-0.065,-0.240
2191202,-0.075,-0.280
2191203,-0.090,-0.310
2191204,-0.070,-0.210
2191205,-0.040,-0.195
2191206,-0.010,-0.255
2191207,0.000,-0.270
2191208,0.020,-0.270
2191209,0.020,-0.265
2191210,0.005,-0.260
2191211,0.000,-0.310
2191212,0.030,-0.310
2191213,0.035,-0.285
2191214,0.000,-0.295
2191215,0.010,-0.275
2191216,0.020,-0.270
2191217,0.040,-0.230
2191218,0.060,-0.260
2191219,0.060,-0.290
2191220,0.045,-0.290
2191221,0.060,-0.270
2191222,0.070,-0.230
2191223,0.080,-0.220
2191224,0.060,-0.240
2191225,0.070,-0.265
2191226,0.070,-0.345
2191227,0.005,-0.405
2191228,-0.005,-0.380
2191229,-0.030,-0.365
2191230,-0.035,-0.370
2191231,-0.025,-0.350
2191232,-0.015,-0.310
2191233,-0.040,-0.340
2191234,-0.050,-0.315
2191235,-0.045,-0.315
2191236,-0.070,-0.270
2191237,-0.085,-0.185
2191238,-0.090,-0.095
2191239,-0.045,0.155
2191240,-0.005,0.480
2191241,0.020,0.895
2191242,0.035,1.160
2191243,-0.115,1.305
2191244,-0.515,1.460
2191245,-1.110,1.645
2191246,-1.710,1.785
2191247,-2.165,1.800
2191248,-2.560,1.730
2191249,-2.630,1.610
2191250,-2.545,1.435
2191251,-2.340,1.270
2191252,-2.180,1.120
2191253,-2.075,0.960
2191254,-1.920,0.790
2191255,-1.730,0.655
2191256,-1.610,0.560
2191257,-1.475,0.475
2191258,-1.360,0.310
2191259,-1.240,0.020
2191260,-1.110,-0.310
2191261,-1.055,-0.585
2191262,-0.985,-0.725
2191263,-0.905,-0.795
2191264,-0.785,-0.755
2191265,-0.640,-0.680
2191266,-0.480,-0.620
2191267,-0.330,-0.610
2191268,-0.160,-0.560
2191269,0.015,-0.515
2191270,0.170,-0.510
2191271,0.235,-0.540
2191272,0.280,-0.505
2191273,0.350,-0.510
2191274,0.380,-0.480
2191275,0.405,-0.450
2191276,0.450,-0.425
2191277,0.490,-0.390
2191278,0.540,-0.425
2191279,0.550,-0.425
2191280,0.555,-0.440
2191281,0.540,-0.455
2191282,0.570,-0.440
2191283,0.555,-0.410
2191284,0.560,-0.400
2191285,0.575,-0.365
2191286,0.600,-0.415
2191287,0.615,-0.430
2191288,0.655,-0.405
2191289,0.675,-0.370
2191290,0.710,-0.330
2191291,0.735,-0.345
2191292,0.765,-0.375
2191293,0.780,-0.425
2191294,0.785,-0.460
2191295,0.820,-0.480
2191296,0.880,-0.405
2191297,0.920,-0.395
2191298,0.930,-0.355
2191299,0.920,-0.370
2191300,0.915,-0.350
2191301,0.905,-0.305
2191302,0.890,-0.350
2191303,0.870,-0.330
2191304,0.830,-0.260
2191305,0.825,-0.215
2191306,0.830,-0.185
2191307,0.840,-0.195
2191308,0.790,-0.180
2191309,0.725,-0.125
2191310,0.720,-0.100
2191311,0.670,-0.050
2191312,0.630,-0.025
2191313,0.570,-0.015
2191314,0.540,-0.015
2191315,0.525,-0.045
2191316,0.470,-0.060
2191317,0.475,-0.040
2191318,0.395,-0.050
2191319,0.370,-0.055
2191320,0.340,-0.065
2191321,0.300,-0.080
2191322,0.300,-0.080
2191323,0.230,-0.095
2191324,0.155,-0.120
2191325,0.140,-0.160
2191326,0.150,-0.235
2191327,0.145,-0.295
2191328,0.130,-0.260
2191329,0.105,-0.210
2191330,0.105,-0.205
2191331,0.150,-0.265
2191332,0.135,-0.270
2191333,0.155,-0.230
2191334,0.110,-0.245
2191335,0.070,-0.270
2191336,0.070,-0.305
2191337,0.055,-0.350
2191338,0.030,-0.320
2191339,0.030,-0.320
2191340,0.045,-0.310
2191341,0.010,-0.310
2191342,0.030,-0.325
2191343,0.030,-0.380
2191344,0.020,-0.350
2191345,0.020,-0.340
2191346,-0.015,-0.355
2191347,0.020,-0.385
2191348,-0.010,-0.385
2191349,-0.005,-0.360
2191350,-0.005,-0.350
2191351,0.010,-0.330
2191352,0.020,-0.230
2191353,0.030,-0.140
2191354,0.035,-0.185
2191355,0.060,-0.310
2191356,0.000,-0.360
2191357,0.000,-0.320
2191358,0.010,-0.265
2191359,-0.010,-0.180
2191360,0.005,-0.035
2191361,0.055,-0.050
2191362,0.090,-0.165
2191363,0.110,-0.265
2191364,0.080,-0.290
2191365,0.070,-0.245
2191366,0.080,-0.240
2191367,0.100,-0.220
2191368,0.150,-0.150
2191369,0.145,-0.125
2191370,0.125,-0.120
2191371,0.090,-0.140
2191372,0.080,-0.155
2191373,0.065,-0.120
2191374,0.065,-0.155
2191375,0.050,-0.200
2191376,0.050,-0.225
2191377,0.045,-0.190
2191378,0.005,-0.220
2191379,0.035,-0.270
2191380,0.025,-0.335
2191381,0.030,-0.335
2191382,0.020,-0.245
2191383,0.020,-0.200
2191384,0.040,-0.235
2191385,0.010,-0.290
2191386,0.030,-0.255
2191387,0.010,-0.230
2191388,0.060,-0.215
2191389,0.060,-0.190
2191390,0.055,-0.140
2191391,0.050,-0.145
2191392,0.040,-0.080
2191393,0.035,-0.060
2191394,0.015,-0.050
2191395,0.000,-0.055
2191396,-0.030,-0.120
2191397,-0.040,-0.075
2191398,0.005,0.070
2191399,0.025,0.255
2191400,0.025,0.520
2191401,0.030,0.635
2191402,0.045,0.720
2191403,0.100,0.820
2191404,0.170,0.980
2191405,0.000,1.225
2191406,-0.360,1.450
2191407,-0.955,1.605
2191408,-1.630,1.590
2191409,-2.215,1.560
2191410,-2.645,1.585
2191411,-2.800,1.635
2191412,-2.715,1.695
2191413,-2.535,1.670
2191414,-2.350,1.650
2191415,-2.210,1.490
2191416,-2.080,1.275
2191417,-1.880,1.145
2191418,-1.665,1.085
2191419,-1.565,1.020
2191420,-1.435,0.950
2191421,-1.310,0.945
2191422,-1.180,0.700
2191423,-1.075,0.210
2191424,-0.985,-0.245
2191425,-0.885,-0.470
2191426,-0.785,-0.530
2191427,-0.700,-0.510
2191428,-0.570,-0.390
2191429,-0.425,-0.240
2191430,-0.260,-0.135
2191431,-0.110,-0.040
2191432,0.050,-0.045
2191433,0.195,-0.065
2191434,0.310,-0.150
2191435,0.400,-0.225
2191436,0.445,-0.270
2191437,0.500,-0.200
2191438,0.515,-0.140
2191439,0.545,-0.110
2191440,0.565,-0.060
2191441,0.585,-0.025
2191442,0.575,0.000
2191443,0.610,0.050
2191444,0.625,0.035
2191445,0.660,-0.045
2191446,0.700,-0.030
2191447,0.740,-0.040
2191448,0.735,-0.040
2191449,0.755,-0.035
2191450,0.765,-0.030
2191451,0.780,0.045
2191452,0.830,0.065
2191453,0.870,0.070
2191454,0.890,0.050
2191455,0.935,0.005
2191456,0.950,0.005
2191457,0.990,0.055
2191458,1.035,0.080
2191459,1.060,0.090
2191460,1.095,0.160
2191461,1.115,0.315
2191462,1.150,0.315
2191463,1.170,0.155
2191464,1.210,0.095
2191465,1.205,0.155
2191466,1.210,0.215
2191467,1.235,0.235
2191468,1.200,0.175
2191469,1.180,0.170
2191470,1.125,0.210
2191471,1.060,0.280
2191472,1.010,0.310
2191473,0.995,0.360
2191474,0.950,0.420
2191475,0.880,0.465
2191476,0.815,0.530
2191477,0.750,0.535
2191478,0.725,0.520
2191479,0.675,0.505
2191480,0.630,0.460
2191481,0.585,0.460
2191482,0.530,0.490
2191483,0.500,0.515
2191484,0.455,0.520
2191485,0.415,0.580
2191486,0.350,0.655
2191487,0.330,0.605
2191488,0.310,0.385
2191489,0.250,0.185
2191490,0.190,0.070
2191491,0.180,0.115
2191492,0.170,0.170
2191493,0.170,0.200
2191494,0.195,0.195
2191495,0.175,0.205
2191496,0.190,0.220
2191497,0.170,0.235
2191498,0.180,0.300
2191499,0.170,0.330
2191500,0.195,0.295
2191501,0.155,0.220
2191502,0.205,0.220
2191503,0.185,0.235
2191504,0.180,0.270
2191505,0.185,0.270
2191506,0.190,0.300
2191507,0.210,0.315
2191508,0.175,0.245
2191509,0.155,0.205
2191510,0.125,0.195
2191511,0.075,0.165
2191512,0.045,0.125
2191513,0.060,0.185
2191514,0.080,0.315
2191515,0.125,0.340
2191516,0.120,0.285
2191517,0.100,0.260
2191518,0.090,0.280
2191519,0.100,0.260
2191520,0.085,0.155
2191521,0.125,0.155
2191522,0.145,0.255
2191523,0.125,0.280
2191524,0.115,0.225
2191525,0.115,0.210
2191526,0.090,0.270
2191527,0.050,0.330
2191528,0.035,0.250
2191529,0.070,0.140
2191530,0.085,0.075
2191531,0.070,0.080
2191532,0.090,0.230
2191533,0.070,0.310
2191534,0.055,0.345
2191535,0.040,0.265
2191536,0.060,0.180
2191537,0.075,0.210
2191538,0.075,0.310
2191539,0.075,0.550
2191540,0.060,0.805
2191541,0.090,1.000
2191542,0.185,1.185
2191543,0.245,1.425
2191544,0.115,1.760
2191545,-0.200,2.105
2191546,-0.685,2.550
2191547,-1.330,2.975
2191548,-1.925,3.045
2191549,-2.460,2.695
2191550,-2.730,2.210
2191551,-2.735,1.935
2191552,-2.550,1.950
2191553,-2.380,1.980
2191554,-2.165,1.960
2191555,-1.995,1.790
2191556,-1.845,1.600
2191557,-1.680,1.540
2191558,-1.550,1.445
2191559,-1.485,1.315
2191560,-1.395,1.175
2191561,-1.300,0.985
2191562,-1.200,0.625
2191563,-1.105,0.200
2191564,-1.025,-0.025
2191565,-0.970,-0.125
2191566,-0.860,-0.080
2191567,-0.760,0.005
2191568,-0.640,0.110
2191569,-0.470,0.200
2191570,-0.310,0.255
2191571,-0.145,0.345
2191572,0.000,0.380
2191573,0.160,0.360
2191574,0.255,0.425
2191575,0.325,0.570
2191576,0.430,0.850
2191577,0.440,1.195
2191578,0.470,1.340
2191579,0.455,1.315
2191580,0.520,1.285
2191581,0.550,1.255
2191582,0.555,1.255
2191583,0.560,1.275
2191584,0.610,1.295
2191585,0.610,1.315
2191586,0.620,1.295
2191587,0.655,1.370
2191588,0.675,1.400
2191589,0.680,1.440
2191590,0.725,1.430
2191591,0.760,1.395
2191592,0.725,1.465
2191593,0.760,1.515
2191594,0.780,1.540
2191595,0.815,1.530
2191596,0.825,1.460
2191597,0.845,1.435
2191598,0.880,1.450
2191599,0.875,1.485
2191600,0.870,1.570
2191601,0.890,1.620
2191602,0.900,1.640
2191603,0.890,1.645
2191604,0.895,1.665
2191605,0.925,1.590
2191606,0.930,1.445
2191607,0.915,1.435
2191608,0.865,1.470
2191609,0.845,1.565
2191610,0.815,1.580
2191611,0.840,1.630
2191612,0.835,1.670
2191613,0.805,1.675
2191614,0.775,1.740
2191615,0.735,1.735
2191616,0.655,1.805
2191617,0.590,1.810
2191618,0.590,1.810
2191619,0.565,1.765
2191620,0.520,1.730
2191621,0.455,1.755
2191622,0.400,1.720
2191623,0.345,1.690
2191624,0.260,1.680
2191625,0.260,1.690
2191626,0.220,1.650
2191627,0.195,1.630
2191628,0.180,1.655
2191629,0.190,1.650
2191630,0.170,1.670
2191631,0.125,1.675
2191632,0.090,1.685
2191633,0.040,1.635
2191634,0.040,1.620
2191635,0.035,1.585
2191636,-0.005,1.545
2191637,-0.010,1.540
2191638,-0.010,1.525
2191639,-0.005,1.550
2191640,0.010,1.600
2191641,0.040,1.565
2191642,0.030,1.505
2191643,0.095,1.470
2191644,0.110,1.415
2191645,0.095,1.475
2191646,0.065,1.565
2191647,0.055,1.635
2191648,0.080,1.605
2191649,0.080,1.615
2191650,0.110,1.590
2191651,0.095,1.555
2191652,0.085,1.545
2191653,0.095,1.560
2191654,0.070,1.570
2191655,0.060,1.590
2191656,0.060,1.600
2191657,0.075,1.585
2191658,0.045,1.505
2191659,0.075,1.455
2191660,0.075,1.490
2191661,0.095,1.525
2191662,0.085,1.510
2191663,0.090,1.535
2191664,0.065,1.590
2191665,0.085,1.620
2191666,0.110,1.650
2191667,0.095,1.555
2191668,0.115,1.425
2191669,0.115,1.420
2191670,0.085,1.480
2191671,0.045,1.560
2191672,0.035,1.630
2191673,0.060,1.705
2191674,0.070,1.695
2191675,0.090,1.595
2191676,0.105,1.565
2191677,0.130,1.555
2191678,0.150,1.520
2191679,0.140,1.500
2191680,0.130,1.530
2191681,0.120,1.515
2191682,0.120,1.535
2191683,0.105,1.520
2191684,0.110,1.465
2191685,0.125,1.465
2191686,0.145,1.420
2191687,0.145,1.400
2191688,0.165,1.380
2191689,0.160,1.365
2191690,0.170,1.365
2191691,0.165,1.265
2191692,0.150,1.115
2191693,0.200,1.000
2191694,0.220,1.060
2191695,0.190,1.225
2191696,0.180,1.335
2191697,0.160,1.320
2191698,0.135,1.195
2191699,0.200,1.165
2191700,0.185,1.175
2191701,0.150,1.225
2191702,0.120,1.255
2191703,0.120,1.220
2191704,0.140,1.200
2191705,0.165,1.230
2191706,0.165,1.220
2191707,0.125,1.230
2191708,0.135,1.215
2191709,0.120,1.255
2191710,0.125,1.395
2191711,0.150,1.680
2191712,0.220,2.175
2191713,0.220,2.460
2191714,0.065,2.520
2191715,-0.230,2.525
2191716,-0.720,2.590
2191717,-1.360,2.785
2191718,-1.930,2.900
2191719,-2.380,2.920
2191720,-2.660,2.880
2191721,-2.730,2.800
2191722,-2.645,2.665
2191723,-2.420,2.565
2191724,-2.245,2.460
2191725,-2.120,2.290
2191726,-1.915,2.135
2191727,-1.750,2.015
2191728,-1.565,1.945
2191729,-1.430,1.955
2191730,-1.305,1.995
2191731,-1.175,1.950
2191732,-1.005,1.665
2191733,-0.885,1.175
2191734,-0.800,0.840
2191735,-0.700,0.690
2191736,-0.625,0.650
2191737,-0.500,0.625
2191738,-0.355,0.635
2191739,-0.195,0.675
2191740,-0.010,0.725
2191741,0.145,0.765
2191742,0.305,0.810
2191743,0.435,0.800
2191744,0.545,0.755
2191745,0.600,0.775
2191746,0.680,0.720
2191747,0.715,0.695
2191748,0.720,0.685
2191749,0.710,0.705
2191750,0.700,0.700
2191751,0.690,0.660
2191752,0.680,0.640
2191753,0.690,0.640
2191754,0.710,0.625
2191755,0.680,0.615
2191756,0.655,0.625
2191757,0.620,0.660
2191758,0.640,0.710
2191759,0.680,0.775
2191760,0.730,0.935
2191761,0.725,0.950
2191762,0.755,0.785
2191763,0.760,0.675
2191764,0.755,0.530
2191765,0.760,0.425
2191766,0.805,0.355
2191767,0.905,0.290
2191768,0.960,0.360
2191769,1.005,0.425
2191770,1.075,0.400
2191771,1.085,0.420
2191772,1.115,0.535
2191773,1.145,0.835
2191774,1.155,1.070
2191775,1.165,0.985
2191776,1.195,0.690
2191777,1.150,0.390
2191778,1.125,0.360
2191779,1.130,0.460
2191780,1.105,0.565
2191781,1.110,0.665
2191782,1.155,0.735
2191783,1.185,0.795
2191784,1.185,0.860
2191785,1.100,0.895
2191786,1.060,0.905
2191787,1.025,0.945
2191788,0.980,0.950
2191789,0.925,0.945
2191790,0.855,0.915
2191791,0.760,1.005
2191792,0.755,1.110
2191793,0.680,1.100
2191794,0.635,1.010
2191795,0.610,0.885
2191796,0.590,0.865
2191797,0.515,0.940
2191798,0.470,1.005
2191799,0.450,1.080
2191800,0.440,1.225
2191801,0.450,1.245
2191802,0.385,0.975
2191803,0.300,0.610
2191804,0.230,0.410
2191805,0.140,0.455
2191806,0.080,0.575
2191807,0.130,0.650
2191808,0.185,0.695
2191809,0.210,0.760
2191810,0.140,0.780
2191811,0.110,0.835
2191812,0.070,0.950
2191813,0.050,1.005
2191814,0.050,0.925
2191815,0.005,0.535
2191816,0.020,0.265
2191817,0.035,0.290
2191818,0.050,0.420
2191819,0.090,0.495
2191820,0.125,0.585
2191821,0.180,0.635
2191822,0.210,0.650
2191823,0.210,0.585
2191824,0.210,0.420
2191825,0.180,0.320
2191826,0.185,0.445
2191827,0.130,0.725
2191828,0.100,0.830
2191829,0.105,0.825
2191830,0.140,0.790
2191831,0.185,0.720
2191832,0.170,0.685
2191833,0.145,0.680
2191834,0.140,0.660
2191835,0.120,0.635
2191836,0.095,0.625
2191837,0.115,0.645
2191838,0.155,0.710
2191839,0.170,0.695
2191840,0.125,0.635
2191841,0.095,0.655
2191842,0.100,0.670
2191843,0.075,0.740
2191844,0.075,0.780
2191845,0.060,0.735
2191846,0.070,0.700
2191847,0.125,0.775
2191848,0.110,0.855
2191849,0.055,0.955
2191850,0.030,1.120
2191851,0.095,1.485
2191852,0.165,1.775
2191853,0.010,1.920
2191854,-0.295,1.995
2191855,-0.740,2.120
2191856,-1.440,2.405
2191857,-2.025,2.595
2191858,-2.505,2.670
2191859,-2.785,2.650
2191860,-2.875,2.545
2191861,-2.740,2.515
2191862,-2.540,2.400
2191863,-2.390,2.350
2191864,-2.275,2.365
2191865,-2.160,2.270
2191866,-1.945,2.085
2191867,-1.810,1.810
2191868,-1.675,1.560
2191869,-1.525,1.530
2191870,-1.365,1.365
2191871,-1.255,0.805
2191872,-1.165,0.220
2191873,-1.015,-0.145
2191874,-0.890,-0.245
2191875,-0.805,-0.220
2191876,-0.720,-0.095
2191877,-0.640,0.075
2191878,-0.490,0.210
2191879,-0.330,0.265
2191880,-0.160,0.295
2191881,0.030,0.255
2191882,0.220,0.135
2191883,0.305,0.095
2191884,0.385,0.110
2191885,0.400,0.110
2191886,0.325,0.105
2191887,0.315,0.120
2191888,0.345,0.175
2191889,0.360,0.270
2191890,0.400,0.255
2191891,0.420,0.230
2191892,0.430,0.250
2191893,0.450,0.315
2191894,0.460,0.360
2191895,0.465,0.390
2191896,0.460,0.385
2191897,0.510,0.400
2191898,0.555,0.490
2191899,0.620,0.470
2191900,0.685,0.415
2191901,0.700,0.285
2191902,0.735,0.155
2191903,0.770,0.210
2191904,0.775,0.345
2191905,0.785,0.415
2191906,0.760,0.360
2191907,0.780,0.240
2191908,0.830,0.150
2191909,0.850,0.190
2191910,0.810,0.320
2191911,0.795,0.270
2191912,0.845,0.190
2191913,0.850,0.235
2191914,0.825,0.285
2191915,0.830,0.315
2191916,0.820,0.355
2191917,0.835,0.395
2191918,0.820,0.320
2191919,0.815,0.270
2191920,0.760,0.360
2191921,0.675,0.335
2191922,0.615,0.300
2191923,0.615,0.380
2191924,0.560,0.475
2191925,0.440,0.525
2191926,0.330,0.555
2191927,0.310,0.560
2191928,0.325,0.550
2191929,0.280,0.520
2191930,0.240,0.450
2191931,0.185,0.405
2191932,0.150,0.375
2191933,0.080,0.335
2191934,0.010,0.315
2191935,-0.055,0.290
2191936,-0.100,0.305
2191937,-0.115,0.385
2191938,-0.130,0.470
2191939,-0.130,0.505
2191940,-0.125,0.370
2191941,-0.130,0.235
2191942,-0.130,0.210
2191943,-0.125,0.160
2191944,-0.135,0.215
2191945,-0.135,0.305
2191946,-0.155,0.305
2191947,-0.170,0.175
2191948,-0.140,0.125
2191949,-0.115,0.170
2191950,-0.155,0.180
2191951,-0.160,0.140
2191952,-0.175,0.120
2191953,-0.160,0.165
2191954,-0.200,0.215
2191955,-0.190,0.175
2191956,-0.165,0.155
2191957,-0.165,0.150
2191958,-0.160,0.150
2191959,-0.160,0.140
2191960,-0.160,0.135
2191961,-0.150,0.140
2191962,-0.140,0.070
2191963,-0.135,-0.040
2191964,-0.130,-0.015
2191965,-0.120,0.030
2191966,-0.125,0.045
2191967,-0.130,0.000
2191968,-0.125,-0.040
2191969,-0.125,-0.050
2191970,-0.155,0.025
2191971,-0.130,0.090
2191972,-0.140,0.035
2191973,-0.120,-0.015
2191974,-0.105,0.000
2191975,-0.100,0.050
2191976,-0.095,0.070
2191977,-0.070,0.060
2191978,-0.085,0.110
2191979,-0.055,0.220
2191980,-0.080,0.395
2191981,-0.105,0.625
2191982,-0.035,0.900
2191983,-0.005,1.125
2191984,-0.220,1.315
2191985,-0.635,1.540
2191986,-1.310,1.650
2191987,-2.020,1.840
2191988,-2.550,1.940
2191989,-2.835,1.870
2191990,-2.895,1.780
2191991,-2.815,1.830
2191992,-2.630,1.715
2191993,-2.460,1.525
2191994,-2.320,1.365
2191995,-2.145,1.235
2191996,-1.955,1.125
2191997,-1.810,0.970
2191998,-1.715,0.815
2191999,-1.555,0.690
2192000,-1.410,0.525
2192001,-1.270,0.145
2192002,-1.135,-0.285
2192003,-1.080,-0.550
2192004,-0.995,-0.640
2192005,-0.875,-0.620
2192006,-0.750,-0.530
2192007,-0.620,-0.415
2192008,-0.480,-0.370
2192009,-0.320,-0.335
2192010,-0.175,-0.260
2192011,0.005,-0.215
2192012,0.140,-0.240
2192013,0.245,-0.235
2192014,0.315,-0.230
2192015,0.370,-0.210
2192016,0.375,-0.200
2192017,0.425,-0.205
2192018,0.455,-0.220
2192019,0.495,-0.225
2192020,0.520,-0.220
2192021,0.525,-0.220
2192022,0.485,-0.235
2192023,0.490,-0.210
2192024,0.525,-0.185
2192025,0.515,-0.180
2192026,0.545,-0.160
2192027,0.565,-0.145
2192028,0.550,-0.130
2192029,0.580,-0.130
2192030,0.615,-0.155
2192031,0.640,-0.140
2192032,0.650,-0.120
2192033,0.660,-0.105
2192034,0.725,-0.060
2192035,0.765,0.005
2192036,0.790,0.030
2192037,0.840,-0.080
2192038,0.870,-0.105
2192039,0.905,-0.045
2192040,0.915,-0.010
2192041,0.935,0.005
2192042,0.930,0.020
2192043,0.925,0.035
2192044,0.935,0.065
2192045,0.900,0.130
2192046,0.870,0.180
2192047,0.860,0.225
2192048,0.860,0.295
2192049,0.815,0.275
2192050,0.815,0.265
2192051,0.760,0.285
2192052,0.715,0.295
2192053,0.665,0.300
2192054,0.605,0.300
2192055,0.575,0.300
2192056,0.510,0.240
2192057,0.435,0.190
2192058,0.360,0.190
2192059,0.310,0.170
2192060,0.235,0.085
2192061,0.155,0.045
2192062,0.110,0.020
2192063,0.070,0.045
2192064,0.020,0.040
2192065,0.000,0.010
2192066,-0.015,0.005
2192067,-0.030,0.000
2192068,-0.050,0.010
2192069,-0.095,0.030
2192070,-0.095,0.025
2192071,-0.085,-0.030
2192072,-0.075,-0.125
2192073,-0.065,-0.120
2192074,-0.050,-0.080
2192075,-0.050,-0.040
2192076,-0.070,-0.045
2192077,-0.080,-0.050
2192078,-0.045,-0.040
2192079,-0.070,-0.065
2192080,-0.025,-0.085
2192081,-0.005,-0.045
2192082,-0.010,0.000
2192083,0.000,0.035
2192084,-0.005,0.015
2192085,0.010,0.005
2192086,0.040,0.000
2192087,0.075,-0.035
2192088,0.095,-0.050
2192089,0.100,-0.015
2192090,0.120,-0.005
2192091,0.145,0.005
2192092,0.110,-0.025
2192093,0.095,-0.005
2192094,0.095,-0.050
2192095,0.085,-0.065
2192096,0.075,-0.030
2192097,0.040,-0.090
2192098,0.020,-0.100
2192099,-0.010,-0.065
2192100,-0.015,-0.070
2192101,-0.040,-0.070
2192102,-0.060,-0.050
2192103,-0.075,-0.055
2192104,-0.070,-0.110
2192105,-0.100,-0.140
2192106,-0.080,-0.110
2192107,-0.075,-0.110
2192108,-0.130,-0.090
2192109,-0.135,-0.060
2192110,-0.115,-0.030
2192111,-0.115,-0.035
2192112,-0.115,-0.075
2192113,-0.120,-0.070
2192114,-0.130,-0.055
2192115,-0.115,-0.040
2192116,-0.125,-0.075
2192117,-0.135,-0.070
2192118,-0.145,-0.010
2192119,-0.140,0.005
2192120,-0.150,0.040
2192121,-0.125,0.090
2192122,-0.105,0.100
2192123,-0.080,0.085
2192124,-0.050,0.050
2192125,-0.040,0.075
2192126,-0.015,0.105
2192127,0.020,0.100
2192128,0.050,0.105
2192129,0.045,0.115
2192130,0.040,0.110
2192131,0.035,0.095
2192132,0.025,0.075
2192133,0.025,0.060
2192134,0.000,0.065
2192135,-0.015,0.060
2192136,-0.010,0.030
2192137,0.000,0.030
2192138,-0.025,0.000
2192139,-0.015,-0.050
2192140,-0.045,-0.080
2192141,-0.065,0.000
2192142,-0.045,0.055
2192143,-0.045,0.045
2192144,-0.080,0.060
2192145,-0.085,0.030
2192146,-0.045,0.025
2192147,-0.040,0.005
2192148,-0.080,0.005
2192149,-0.065,-0.005
2192150,-0.070,0.010
2192151,-0.075,0.005
2192152,-0.055,-0.015
2192153,-0.060,-0.080
2192154,-0.080,-0.085
2192155,-0.060,-0.040
2192156,-0.060,0.000
2192157,-0.040,0.055
2192158,-0.030,0.170
2192159,-0.015,0.310
2192160,0.005,0.590
2192161,0.065,0.965
2192162,0.105,1.310
2192163,-0.030,1.475
2192164,-0.380,1.595
2192165,-0.895,1.700
2192166,-1.520,1.920
2192167,-2.075,2.020
2192168,-2.520,1.980
2192169,-2.680,1.890
2192170,-2.600,1.820
2192171,-2.415,1.645
2192172,-2.225,1.445
2192173,-2.075,1.275
2192174,-1.950,1.185
2192175,-1.760,1.125
2192176,-1.625,1.045
2192177,-1.495,0.970
2192178,-1.330,0.980
2192179,-1.210,0.855
2192180,-1.050,0.540
2192181,-0.945,0.075
2192182,-0.815,-0.265
2192183,-0.730,-0.400
2192184,-0.630,-0.425
2192185,-0.565,-0.430
2192186,-0.455,-0.435
2192187,-0.345,-0.375
2192188,-0.190,-0.345
2192189,-0.035,-0.350
2192190,0.150,-0.360
2192191,0.260,-0.340
2192192,0.325,-0.295
2192193,0.355,-0.285
2192194,0.420,-0.275
2192195,0.430,-0.290
2192196,0.475,-0.280
2192197,0.500,-0.300
2192198,0.495,-0.315
2192199,0.525,-0.270
2192200,0.575,-0.255
2192201,0.575,-0.280
2192202,0.570,-0.330
2192203,0.610,-0.340
2192204,0.635,-0.280
2192205,0.670,-0.235
2192206,0.680,-0.220
2192207,0.695,-0.230
2192208,0.735,-0.240
2192209,0.755,-0.235
2192210,0.780,-0.240
2192211,0.810,-0.220
2192212,0.850,-0.275
2192213,0.865,-0.315
2192214,0.880,-0.335
2192215,0.925,-0.340
2192216,0.925,-0.335
2192217,0.955,-0.365
2192218,0.995,-0.385
2192219,1.030,-0.340
2192220,1.060,-0.280
2192221,1.100,-0.235
2192222,1.090,-0.225
2192223,1.090,-0.215
2192224,1.095,-0.185
2192225,1.115,-0.145
2192226,1.115,-0.135
2192227,1.085,-0.110
2192228,1.020,-0.035
2192229,1.000,0.050
2192230,0.955,0.105
2192231,0.940,0.155
2192232,0.870,0.165
2192233,0.800,0.175
2192234,0.795,0.165
2192235,0.715,0.175
2192236,0.670,0.125
2192237,0.585,0.155
2192238,0.560,0.160
2192239,0.480,0.110
2192240,0.405,0.125
2192241,0.375,0.100
2192242,0.340,0.035
2192243,0.315,0.005
2192244,0.270,0.025
2192245,0.260,0.000
2192246,0.235,-0.015
2192247,0.205,0.000
2192248,0.200,-0.005
2192249,0.195,-0.055
2192250,0.220,-0.115
2192251,0.200,-0.105
2192252,0.170,-0.060
2192253,0.190,-0.120
2192254,0.160,-0.175
2192255,0.195,-0.190
2192256,0.180,-0.095
2192257,0.155,-0.090
2192258,0.220,-0.140
2192259,0.195,-0.175
2192260,0.205,-0.125
2192261,0.185,-0.140
2192262,0.195,-0.190
2192263,0.195,-0.255
2192264,0.200,-0.225
2192265,0.215,-0.180
2192266,0.200,-0.185
2192267,0.240,-0.205
2192268,0.255,-0.210
2192269,0.280,-0.210
2192270,0.290,-0.195
2192271,0.235,-0.180
2192272,0.240,-0.185
2192273,0.235,-0.190
2192274,0.215,-0.185
2192275,0.175,-0.195
2192276,0.150,-0.220
2192277,0.140,-0.210
2192278,0.130,-0.195
2192279,0.125,-0.215
2192280,0.120,-0.250
2192281,0.125,-0.270
2192282,0.130,-0.260
2192283,0.110,-0.270
2192284,0.115,-0.260
2192285,0.095,-0.275
2192286,0.115,-0.285
2192287,0.120,-0.315
2192288,0.130,-0.300
2192289,0.115,-0.295
2192290,0.115,-0.260
2192291,0.120,-0.270
2192292,0.135,-0.270
2192293,0.110,-0.220
2192294,0.110,-0.200
2192295,0.105,-0.260
2192296,0.095,-0.260
2192297,0.095,-0.305
2192298,0.110,-0.475
2192299,0.110,-0.755
2192300,0.120,-0.890
2192301,0.095,-0.865
2192302,0.090,-0.840
2192303,0.095,-0.795
2192304,0.140,-0.785
2192305,0.140,-0.800
2192306,0.140,-0.815
2192307,0.145,-0.885
2192308,0.135,-0.920
2192309,0.165,-0.860
2192310,0.160,-0.805
2192311,0.140,-0.825
2192312,0.130,-0.870
2192313,0.140,-0.885
2192314,0.165,-0.920
2192315,0.125,-1.000
2192316,0.075,-1.045
2192317,0.075,-0.990
2192318,0.105,-0.960
2192319,0.065,-0.960
2192320,0.085,-0.970
2192321,0.085,-0.910
2192322,0.070,-0.835
2192323,0.080,-0.750
2192324,0.100,-0.625
2192325,0.135,-0.315
2192326,0.225,0.015
2192327,0.205,0.210
2192328,-0.050,0.370
2192329,-0.525,0.565
2192330,-1.240,0.775
2192331,-1.870,0.940
2192332,-2.340,0.970
2192333,-2.655,0.935
2192334,-2.640,0.895
2192335,-2.465,0.800
2192336,-2.280,0.745
2192337,-2.110,0.590
2192338,-1.995,0.415
2192339,-1.830,0.290
2192340,-1.575,0.230
2192341,-1.420,0.200
2192342,-1.295,0.155
2192343,-1.170,-0.010
2192344,-1.065,-0.360
2192345,-0.965,-0.795
2192346,-0.845,-1.145
2192347,-0.790,-1.395
2192348,-0.680,-1.485
2192349,-0.590,-1.485
2192350,-0.475,-1.490
2192351,-0.330,-1.465
2192352,-0.160,-1.480
2192353,-0.025,-1.435
2192354,0.140,-1.415
2192355,0.290,-1.365
2192356,0.340,-1.315
2192357,0.400,-1.270
2192358,0.450,-1.240
2192359,0.455,-1.270
2192360,0.485,-1.385
2192361,0.525,-1.405
2192362,0.545,-1.305
2192363,0.565,-1.255
2192364,0.595,-1.260
2192365,0.635,-1.290
2192366,0.665,-1.265
2192367,0.690,-1.245
2192368,0.695,-1.240
2192369,0.745,-1.230
2192370,0.740,-1.210
2192371,0.795,-1.240
2192372,0.825,-1.235
2192373,0.815,-1.180
2192374,0.865,-1.180
2192375,0.910,-1.200
2192376,0.960,-1.170
2192377,1.000,-1.180
2192378,1.045,-1.205
2192379,1.055,-1.230
2192380,1.080,-1.245
2192381,1.110,-1.185
2192382,1.110,-1.210
2192383,1.140,-1.240
2192384,1.150,-1.280
2192385,1.170,-1.295
2192386,1.175,-1.325
2192387,1.145,-1.320
2192388,1.110,-1.295
2192389,1.065,-1.175
2192390,0.975,-1.145
2192391,0.970,-1.140
2192392,0.925,-1.110
2192393,0.890,-1.095
2192394,0.825,-1.145
2192395,0.775,-1.130
2192396,0.735,-0.980
2192397,0.690,-0.920
2192398,0.655,-0.980
2192399,0.605,-0.975
2192400,0.545,-1.020
2192401,0.515,-1.080
2192402,0.500,-1.110
2192403,0.415,-1.090
2192404,0.365,-1.060
2192405,0.345,-1.080
2192406,0.300,-1.110
2192407,0.310,-1.190
2192408,0.310,-1.185
2192409,0.295,-1.115
2192410,0.220,-1.070
2192411,0.195,-1.115
2192412,0.200,-1.100
2192413,0.220,-1.095
2192414,0.210,-1.125
2192415,0.230,-1.135
2192416,0.260,-1.205
2192417,0.220,-1.250
2192418,0.225,-1.225
2192419,0.205,-1.175
2192420,0.210,-1.175
2192421,0.245,-1.255
2192422,0.270,-1.285
2192423,0.215,-1.235
2192424,0.235,-1.235
2192425,0.250,-1.215
2192426,0.285,-1.225
2192427,0.255,-1.220
2192428,0.235,-1.255
2192429,0.220,-1.360
2192430,0.170,-1.410
2192431,0.165,-1.400
2192432,0.160,-1.355
2192433,0.115,-1.400
2192434,0.095,-1.390
2192435,0.080,-1.420
2192436,0.070,-1.405
2192437,0.070,-1.340
2192438,0.080,-1.335
2192439,0.085,-1.335
2192440,0.110,-1.380
2192441,0.115,-1.350
2192442,0.110,-1.345
2192443,0.085,-1.365
2192444,0.090,-1.410
2192445,0.125,-1.430
2192446,0.110,-1.360
2192447,0.090,-1.325
2192448,0.065,-1.280
2192449,0.070,-1.225
2192450,0.020,-1.235
2192451,0.005,-1.250
2192452,0.085,-1.260
2192453,0.170,-1.240
2192454,0.235,-1.140
2192455,0.195,-1.060
2192456,0.115,-0.990
2192457,0.180,-0.850
2192458,0.220,-0.555
2192459,0.245,-0.225
2192460,0.075,0.000
2192461,-0.240,0.195
2192462,-0.745,0.425
2192463,-1.455,0.650
2192464,-2.085,0.865
2192465,-2.520,0.945
2192466,-2.775,0.850
2192467,-2.725,0.795
2192468,-2.575,0.715
2192469,-2.365,0.630
2192470,-2.145,0.435
2192471,-1.990,0.115
2192472,-1.805,-0.155
2192473,-1.590,-0.175
2192474,-1.435,-0.165
2192475,-1.345,-0.250
2192476,-1.235,-0.415
2192477,-1.080,-0.790
2192478,-1.000,-1.200
2192479,-0.920,-1.490
2192480,-0.875,-1.560
2192481,-0.780,-1.645
2192482,-0.620,-1.610
2192483,-0.500,-1.590
2192484,-0.340,-1.640
2192485,-0.215,-1.685
2192486,-0.060,-1.690
2192487,0.070,-1.635
2192488,0.200,-1.530
2192489,0.320,-1.460
2192490,0.500,-1.420
2192491,0.605,-1.455
2192492,0.605,-1.480
2192493,0.615,-1.435
2192494,0.645,-1.395
2192495,0.635,-1.410
2192496,0.595,-1.550
2192497,0.575,-1.610
2192498,0.580,-1.595
2192499,0.650,-1.665
2192500,0.710,-1.680
2192501,0.735,-1.580
2192502,0.745,-1.465
2192503,0.785,-1.400
2192504,0.805,-1.440
2192505,0.850,-1.480
2192506,0.925,-1.470
2192507,0.940,-1.530
2192508,0.975,-1.540
2192509,0.985,-1.450
2192510,1.030,-1.435
2192511,1.030,-1.460
2192512,1.070,-1.435
2192513,1.140,-1.405
2192514,1.140,-1.430
2192515,1.155,-1.395
2192516,1.170,-1.360
2192517,1.180,-1.310
2192518,1.210,-1.235
2192519,1.245,-1.245
2192520,1.310,-1.210
2192521,1.320,-1.110
2192522,1.225,-1.020
2192523,1.150,-1.130
2192524,1.080,-1.225
2192525,0.980,-1.225
2192526,0.895,-1.200
2192527,0.895,-1.270
2192528,0.895,-1.330
2192529,0.795,-1.300
2192530,0.685,-1.270
2192531,0.580,-1.270
2192532,0.570,-1.230
2192533,0.560,-1.250
2192534,0.530,-1.240
2192535,0.460,-1.235
2192536,0.380,-1.280
2192537,0.330,-1.360
2192538,0.295,-1.350
2192539,0.275,-1.295
2192540,0.235,-1.300
2192541,0.230,-1.335
2192542,0.190,-1.395
2192543,0.175,-1.405
2192544,0.175,-1.435
2192545,0.135,-1.385
2192546,0.130,-1.285
2192547,0.095,-1.260
2192548,0.085,-1.260
2192549,0.115,-1.310
2192550,0.165,-1.360
2192551,0.210,-1.360
2192552,0.150,-1.375
2192553,0.080,-1.380
2192554,0.065,-1.385
2192555,0.055,-1.365
2192556,0.115,-1.355
2192557,0.170,-1.455
2192558,0.125,-1.450
2192559,0.105,-1.385
2192560,0.155,-1.355
2192561,0.110,-1.365
2192562,0.075,-1.360
2192563,0.105,-1.300
2192564,0.110,-1.295
2192565,0.130,-1.360
2192566,0.110,-1.475
2192567,0.115,-1.465
2192568,0.155,-1.440
2192569,0.140,-1.440
2192570,0.135,-1.385
2192571,0.120,-1.375
2192572,0.100,-1.415
2192573,0.075,-1.445
2192574,0.060,-1.425
2192575,0.035,-1.435
2192576,0.010,-1.440
2192577,0.005,-1.415
2192578,-0.035,-1.440
2192579,-0.070,-1.420
2192580,-0.060,-1.415
2192581,-0.065,-1.420
2192582,-0.115,-1.385
2192583,-0.115,-1.380
2192584,-0.110,-1.420
2192585,-0.075,-1.410
2192586,-0.100,-1.360
2192587,-0.065,-1.345
2192588,-0.110,-1.375
2192589,-0.125,-1.380
2192590,-0.120,-1.355
2192591,-0.140,-1.325
2192592,-0.160,-1.250
2192593,-0.155,-1.265
2192594,-0.125,-1.270
2192595,-0.140,-1.265
2192596,-0.190,-1.300
2192597,-0.230,-1.285
2192598,-0.200,-1.275
2192599,-0.190,-1.315
2192600,-0.205,-1.355
2192601,-0.215,-1.370
2192602,-0.225,-1.320
2192603,-0.225,-1.295
2192604,-0.215,-1.320
2192605,-0.240,-1.325
2192606,-0.260,-1.320
2192607,-0.280,-1.350
2192608,-0.260,-1.365
2192609,-0.245,-1.325
2192610,-0.210,-1.255
2192611,-0.225,-1.210
2192612,-0.225,-1.210
2192613,-0.200,-1.275
2192614,-0.155,-1.270
2192615,-0.140,-1.225
2192616,-0.200,-1.185
2192617,-0.255,-1.185
2192618,-0.235,-1.205
2192619,-0.235,-1.235
2192620,-0.285,-1.220
2192621,-0.280,-1.190
2192622,-0.285,-1.170
2192623,-0.290,-1.155
2192624,-0.360,-1.175
2192625,-0.380,-1.165
2192626,-0.350,-1.120
2192627,-0.335,-1.015
2192628,-0.300,-0.830
2192629,-0.290,-0.630
2192630,-0.250,-0.360
2192631,-0.225,-0.050
2192632,-0.385,0.255
2192633,-0.740,0.435
2192634,-1.325,0.545
2192635,-1.995,0.610
2192636,-2.455,0.630
2192637,-2.815,0.750
2192638,-2.955,0.880
2192639,-2.915,0.865
2192640,-2.795,0.670
2192641,-2.625,0.425
2192642,-2.475,0.260
2192643,-2.300,0.110
2192644,-2.120,-0.025
2192645,-1.935,-0.160
2192646,-1.810,-0.255
2192647,-1.680,-0.235
2192648,-1.575,-0.195
2192649,-1.460,-0.410
2192650,-1.325,-0.850
2192651,-1.275,-1.310
2192652,-1.275,-1.580
2192653,-1.240,-1.615
2192654,-1.155,-1.520
2192655,-1.020,-1.475
2192656,-0.870,-1.480
2192657,-0.730,-1.525
2192658,-0.560,-1.500
2192659,-0.405,-1.455
2192660,-0.215,-1.420
2192661,-0.080,-1.475
2192662,-0.005,-1.510
2192663,0.025,-1.430
2192664,0.090,-1.335
2192665,0.150,-1.205
2192666,0.230,-1.060
2192667,0.275,-1.030
2192668,0.320,-1.120
2192669,0.350,-1.305
2192670,0.345,-1.440
2192671,0.350,-1.425
2192672,0.345,-1.415
2192673,0.290,-1.415
2192674,0.275,-1.375
2192675,0.260,-1.270
2192676,0.230,-1.130
2192677,0.195,-0.925
2192678,0.220,-0.785
2192679,0.265,-0.890
2192680,0.355,-1.075
2192681,0.410,-1.250
2192682,0.390,-1.315
2192683,0.405,-1.245
2192684,0.410,-1.160
2192685,0.440,-1.145
2192686,0.510,-1.240
2192687,0.565,-1.220
2192688,0.610,-1.090
2192689,0.620,-0.955
2192690,0.625,-0.880
2192691,0.615,-0.975
2192692,0.620,-1.105
2192693,0.620,-1.205
2192694,0.630,-1.185
2192695,0.650,-0.940
2192696,0.675,-0.645
2192697,0.680,-0.615
2192698,0.675,-0.760
2192699,0.660,-1.005
2192700,0.540,-1.120
2192701,0.495,-1.070
2192702,0.480,-1.000
2192703,0.455,-0.820
2192704,0.425,-0.610
2192705,0.395,-0.500
2192706,0.355,-0.430
2192707,0.325,-0.405
2192708,0.240,-0.435
2192709,0.160,-0.495
2192710,0.150,-0.590
2192711,0.125,-0.695
2192712,0.100,-0.695
2192713,0.035,-0.685
2192714,0.040,-0.630
2192715,0.035,-0.605
2192716,0.085,-0.500
2192717,0.070,-0.385
2192718,-0.025,-0.445
2192719,-0.165,-0.590
2192720,-0.235,-0.610
2192721,-0.240,-0.510
2192722,-0.240,-0.500
2192723,-0.235,-0.515
2192724,-0.235,-0.545
2192725,-0.250,-0.550
2192726,-0.330,-0.465
2192727,-0.325,-0.425
2192728,-0.290,-0.470
2192729,-0.290,-0.510
2192730,-0.320,-0.455
2192731,-0.330,-0.435
2192732,-0.255,-0.505
2192733,-0.200,-0.595
2192734,-0.250,-0.570
2192735,-0.320,-0.440
2192736,-0.350,-0.250
2192737,-0.345,-0.090
2192738,-0.350,0.030
2192739,-0.320,0.045
2192740,-0.310,0.000
2192741,-0.320,-0.005
2192742,-0.320,0.020
2192743,-0.270,0.065
2192744,-0.210,0.100
2192745,-0.215,0.110
2192746,-0.235,0.095
2192747,-0.305,0.100
2192748,-0.320,0.170
2192749,-0.280,0.255
2192750,-0.265,0.425
2192751,-0.340,0.710
2192752,-0.380,0.710
2192753,-0.350,0.355
2192754,-0.340,0.000
2192755,-0.320,-0.085
2192756,-0.315,0.005
2192757,-0.315,0.105
2192758,-0.385,0.140
2192759,-0.360,0.195
2192760,-0.285,0.245
2192761,-0.250,0.290
2192762,-0.240,0.410
2192763,-0.265,0.560
2192764,-0.275,0.580
2192765,-0.240,0.680
2192766,-0.235,0.950
2192767,-0.320,1.290
2192768,-0.535,1.550
2192769,-0.865,1.775
2192770,-1.465,1.965
2192771,-2.060,2.035
2192772,-2.540,2.160
2192773,-2.785,2.200
2192774,-2.835,2.155
2192775,-2.750,2.155
2192776,-2.700,2.135
2192777,-2.565,2.155
2192778,-2.525,2.080
2192779,-2.435,1.915
2192780,-2.160,1.750
2192781,-1.975,1.605
2192782,-1.870,1.540
2192783,-1.735,1.480
2192784,-1.595,1.360
2192785,-1.500,1.140
2192786,-1.415,0.820
2192787,-1.370,0.505
2192788,-1.315,0.250
2192789,-1.195,0.065
2192790,-1.045,-0.040
2192791,-0.920,-0.005
2192792,-0.780,0.045
2192793,-0.675,0.165
2192794,-0.515,0.320
2192795,-0.360,0.410
2192796,-0.150,0.365
2192797,0.000,0.365
2192798,0.040,0.335
2192799,0.055,0.340
2192800,0.115,0.370
2192801,0.160,0.345
2192802,0.175,0.310
2192803,0.160,0.265
2192804,0.200,0.265
2192805,0.250,0.270
2192806,0.305,0.295
2192807,0.305,0.345
2192808,0.225,0.410
2192809,0.175,0.415
2192810,0.195,0.385
2192811,0.230,0.340
2192812,0.265,0.330
2192813,0.280,0.345
2192814,0.255,0.370
2192815,0.190,0.380
2192816,0.230,0.395
2192817,0.275,0.410
2192818,0.300,0.440
2192819,0.310,0.490
2192820,0.410,0.510
2192821,0.430,0.540
2192822,0.440,0.550
2192823,0.440,0.535
2192824,0.430,0.640
2192825,0.480,0.800
2192826,0.530,0.920
2192827,0.560,0.875
2192828,0.590,0.660
2192829,0.555,0.475
2192830,0.545,0.480
2192831,0.550,0.490
2192832,0.555,0.445
2192833,0.560,0.410
2192834,0.515,0.460
2192835,0.570,0.475
2192836,0.595,0.530
2192837,0.495,0.595
2192838,0.345,0.615
2192839,0.255,0.535
2192840,0.230,0.475
2192841,0.210,0.530
2192842,0.160,0.580
2192843,0.110,0.515
2192844,0.000,0.460
2192845,-0.025,0.465
2192846,-0.070,0.540
2192847,-0.140,0.585
2192848,-0.160,0.615
2192849,-0.120,0.550
2192850,-0.100,0.480
2192851,-0.130,0.435
2192852,-0.170,0.410
2192853,-0.240,0.345
2192854,-0.260,0.305
2192855,-0.270,0.325
2192856,-0.330,0.355
2192857,-0.375,0.400
2192858,-0.410,0.445
2192859,-0.370,0.415
2192860,-0.330,0.315
2192861,-0.310,0.295
2192862,-0.235,0.315
2192863,-0.265,0.365
2192864,-0.405,0.405
2192865,-0.440,0.485
2192866,-0.380,0.390
2192867,-0.330,0.330
2192868,-0.325,0.295
2192869,-0.310,0.265
2192870,-0.300,0.200
2192871,-0.360,0.175
2192872,-0.365,0.205
2192873,-0.370,0.310
2192874,-0.360,0.350
2192875,-0.310,0.390
2192876,-0.275,0.375
2192877,-0.350,0.330
2192878,-0.320,0.290
2192879,-0.290,0.285
2192880,-0.315,0.250
2192881,-0.330,0.240
2192882,-0.300,0.265
2192883,-0.250,0.280
2192884,-0.260,0.285
2192885,-0.260,0.150
2192886,-0.265,-0.155
2192887,-0.305,-0.450
2192888,-0.345,-0.510
2192889,-0.375,-0.465
2192890,-0.440,-0.475
2192891,-0.445,-0.470
2192892,-0.345,-0.465
2192893,-0.305,-0.535
2192894,-0.360,-0.545
2192895,-0.365,-0.465
2192896,-0.335,-0.415
2192897,-0.345,-0.380
2192898,-0.380,-0.390
2192899,-0.405,-0.420
2192900,-0.360,-0.385
2192901,-0.355,-0.355
2192902,-0.385,-0.410
2192903,-0.385,-0.490
2192904,-0.355,-0.500
2192905,-0.370,-0.470
2192906,-0.385,-0.500
2192907,-0.390,-0.510
2192908,-0.390,-0.475
2192909,-0.370,-0.410
2192910,-0.355,-0.420
2192911,-0.320,-0.440
2192912,-0.310,-0.440
2192913,-0.330,-0.430
2192914,-0.340,-0.455
2192915,-0.295,-0.435
2192916,-0.270,-0.405
2192917,-0.295,-0.380
2192918,-0.315,-0.355
2192919,-0.290,-0.355
2192920,-0.230,-0.445
2192921,-0.245,-0.525
2192922,-0.315,-0.525
2192923,-0.310,-0.525
2192924,-0.285,-0.550
2192925,-0.275,-0.570
2192926,-0.185,-0.590
2192927,-0.200,-0.605
2192928,-0.255,-0.540
2192929,-0.285,-0.465
2192930,-0.310,-0.480
2192931,-0.335,-0.500
2192932,-0.315,-0.450
2192933,-0.280,-0.410
2192934,-0.295,-0.340
2192935,-0.320,-0.355
2192936,-0.325,-0.400
2192937,-0.305,-0.470
2192938,-0.315,-0.415
2192939,-0.310,-0.430
2192940,-0.290,-0.440
2192941,-0.280,-0.415
2192942,-0.240,-0.425
2192943,-0.290,-0.485
2192944,-0.320,-0.485
2192945,-0.375,-0.460
2192946,-0.395,-0.400
2192947,-0.375,-0.385
2192948,-0.300,-0.360
2192949,-0.310,-0.375
2192950,-0.295,-0.350
2192951,-0.220,-0.335
2192952,-0.270,-0.315
2192953,-0.335,-0.350
2192954,-0.345,-0.390
2192955,-0.345,-0.340
2192956,-0.295,-0.300
2192957,-0.270,-0.345
2192958,-0.215,-0.420
2192959,-0.225,-0.535
2192960,-0.285,-0.635
2192961,-0.330,-0.585
2192962,-0.340,-0.505
2192963,-0.260,-0.495
2192964,-0.225,-0.510
2192965,-0.210,-0.560
2192966,-0.245,-0.510
2192967,-0.255,-0.385
2192968,-0.180,-0.325
2192969,-0.180,-0.265
2192970,-0.185,-0.110
2192971,-0.185,0.190
2192972,-0.110,0.650
2192973,-0.085,1.035
2192974,-0.175,1.265
2192975,-0.490,1.395
2192976,-0.925,1.535
2192977,-1.485,1.700
2192978,-1.990,1.750
2192979,-2.430,1.605
2192980,-2.605,1.500
2192981,-2.575,1.385
2192982,-2.435,1.225
2192983,-2.250,1.095
2192984,-2.115,0.995
2192985,-1.980,0.875
2192986,-1.765,0.785
2192987,-1.590,0.700
2192988,-1.555,0.540
2192989,-1.455,0.455
2192990,-1.345,0.285
2192991,-1.265,-0.045
2192992,-1.205,-0.480
2192993,-1.175,-0.790
2192994,-1.120,-0.940
2192995,-1.045,-0.970
2192996,-0.960,-0.930
2192997,-0.830,-0.880
2192998,-0.680,-0.860
2192999,-0.545,-0.770
2193000,-0.440,-0.765
2193001,-0.350,-0.745
2193002,-0.210,-0.735
2193003,-0.135,-0.720
2193004,-0.080,-0.655
2193005,-0.045,-0.640
2193006,0.045,-0.590
2193007,0.090,-0.625
2193008,0.120,-0.585
2193009,0.090,-0.515
2193010,0.105,-0.495
2193011,0.125,-0.530
2193012,0.165,-0.500
2193013,0.245,-0.390
2193014,0.280,-0.280
2193015,0.220,-0.295
2193016,0.185,-0.320
2193017,0.190,-0.335
2193018,0.170,-0.340
2193019,0.225,-0.310
2193020,0.305,-0.235
2193021,0.345,-0.235
2193022,0.345,-0.290
2193023,0.425,-0.370
2193024,0.445,-0.410
2193025,0.455,-0.415
2193026,0.470,-0.405
2193027,0.435,-0.390
2193028,0.465,-0.380
2193029,0.540,-0.370
2193030,0.610,-0.400
2193031,0.635,-0.405
2193032,0.655,-0.405
2193033,0.665,-0.340
2193034,0.635,-0.340
2193035,0.625,-0.350
2193036,0.610,-0.350
2193037,0.600,-0.320
2193038,0.580,-0.290
2193039,0.555,-0.255
2193040,0.550,-0.195
2193041,0.590,-0.135
2193042,0.620,-0.090
2193043,0.585,-0.060
2193044,0.535,-0.070
2193045,0.465,-0.105
2193046,0.370,-0.085
2193047,0.335,-0.035
2193048,0.320,-0.115
2193049,0.330,-0.175
2193050,0.285,-0.240
2193051,0.195,-0.220
2193052,0.195,-0.100
2193053,0.225,-0.080
2193054,0.150,-0.155
2193055,0.030,-0.225
2193056,0.005,-0.245
2193057,0.010,-0.235
2193058,0.000,-0.245
2193059,-0.050,-0.255
2193060,-0.050,-0.295
2193061,-0.025,-0.320
2193062,-0.055,-0.315
2193063,-0.085,-0.295
2193064,-0.115,-0.295
2193065,-0.105,-0.345
2193066,-0.095,-0.430
2193067,-0.130,-0.420
2193068,-0.075,-0.380
2193069,-0.065,-0.450
2193070,-0.080,-0.465
2193071,-0.115,-0.490
2193072,-0.150,-0.505
2193073,-0.140,-0.525
2193074,-0.130,-0.560
2193075,-0.145,-0.480
2193076,-0.135,-0.470
2193077,-0.160,-0.470
2193078,-0.145,-0.470
2193079,-0.135,-0.370
2193080,-0.140,-0.315
2193081,-0.160,-0.420
2193082,-0.150,-0.580
2193083,-0.100,-0.715
2193084,-0.070,-0.710
2193085,-0.035,-0.635
2193086,-0.065,-0.570
2193087,-0.065,-0.500
2193088,-0.070,-0.455
2193089,-0.035,-0.495
2193090,-0.045,-0.510
2193091,-0.060,-0.490
2193092,-0.080,-0.505
2193093,-0.085,-0.500
2193094,-0.085,-0.565
2193095,-0.085,-0.550
2193096,-0.125,-0.515
2193097,-0.135,-0.535
2193098,-0.140,-0.505
2193099,-0.120,-0.465
2193100,-0.115,-0.405
2193101,-0.135,-0.435
2193102,-0.155,-0.450
2193103,-0.145,-0.420
2193104,-0.100,-0.430
2193105,-0.090,-0.500
2193106,-0.120,-0.555
2193107,-0.140,-0.555
2193108,-0.110,-0.470
2193109,-0.090,-0.420
2193110,-0.060,-0.405
2193111,-0.025,-0.400
2193112,0.000,-0.420
2193113,-0.040,-0.445
2193114,-0.120,-0.475
2193115,-0.100,-0.470
2193116,-0.025,-0.380
2193117,-0.020,-0.355
2193118,-0.085,-0.420
2193119,-0.075,-0.435
2193120,-0.080,-0.395
2193121,-0.090,-0.410
2193122,-0.125,-0.415
2193123,-0.120,-0.395
2193124,-0.095,-0.365
2193125,-0.060,-0.350
2193126,-0.045,-0.335
2193127,-0.080,-0.350
2193128,-0.040,-0.355
2193129,-0.020,-0.335
2193130,-0.045,-0.335
2193131,-0.040,-0.285
2193132,-0.035,-0.265
2193133,-0.030,-0.295
2193134,-0.025,-0.355
2193135,-0.005,-0.435
2193136,-0.065,-0.380
2193137,-0.105,-0.235
2193138,-0.110,-0.185
2193139,-0.090,-0.135
2193140,-0.060,-0.230
2193141,-0.055,-0.440
2193142,-0.060,-0.610
2193143,-0.120,-0.640
2193144,-0.090,-0.530
2193145,-0.100,-0.380
2193146,-0.105,-0.270
2193147,-0.080,-0.260
2193148,-0.055,-0.260
2193149,-0.085,-0.320
2193150,-0.130,-0.405
2193151,-0.115,-0.455
2193152,-0.070,-0.465
2193153,-0.025,-0.435
2193154,0.015,-0.345
2193155,0.005,-0.270
2193156,-0.020,-0.230
2193157,-0.045,-0.240
2193158,-0.055,-0.280
2193159,-0.110,-0.325
2193160,-0.155,-0.310
2193161,-0.125,-0.265
2193162,-0.055,-0.190
2193163,-0.005,-0.155
2193164,-0.045,-0.070
2193165,-0.005,-0.060
2193166,0.005,-0.105
2193167,-0.010,-0.095
2193168,0.045,-0.075
2193169,0.030,-0.155
2193170,0.000,-0.290
2193171,0.000,-0.345
2193172,-0.020,-0.270
2193173,-0.075,-0.150
2193174,-0.045,-0.095
2193175,-0.020,-0.105
2193176,0.020,-0.170
2193177,0.060,-0.220
2193178,-0.015,-0.230
2193179,-0.120,-0.220
2193180,-0.120,-0.205
2193181,-0.100,-0.180
2193182,-0.080,-0.180
2193183,-0.050,-0.240
2193184,-0.055,-0.205
2193185,-0.050,-0.130
2193186,-0.080,-0.035
2193187,-0.100,-0.030
