'sample interval','ECG1','ECG2'
'0.004 sec','mV','mV'
2277500,-0.775,0.380
2277501,-0.760,0.470
2277502,-0.775,0.495
2277503,-0.775,0.485
2277504,-0.790,0.475
2277505,-0.825,0.465
2277506,-0.810,0.495
2277507,-0.780,0.505
2277508,-0.785,0.510
2277509,-0.785,0.520
2277510,-0.790,0.495
2277511,-0.800,0.475
2277512,-0.795,0.440
2277513,-0.780,0.475
2277514,-0.785,0.430
2277515,-0.840,0.410
2277516,-0.830,0.460
2277517,-0.830,0.510
2277518,-0.840,0.550
2277519,-0.825,0.545
2277520,-0.815,0.530
2277521,-0.790,0.535
2277522,-0.785,0.550
2277523,-0.770,0.555
2277524,-0.760,0.545
2277525,-0.725,0.520
2277526,-0.725,0.525
2277527,-0.725,0.520
2277528,-0.750,0.535
2277529,-0.715,0.535
2277530,-0.750,0.485
2277531,-0.790,0.540
2277532,-0.830,0.565
2277533,-0.835,0.590
2277534,-0.835,0.555
2277535,-0.855,0.520
2277536,-0.900,0.535
2277537,-0.875,0.520
2277538,-0.880,0.515
2277539,-0.910,0.540
2277540,-0.950,0.535
2277541,-0.960,0.525
2277542,-0.945,0.530
2277543,-0.950,0.520
2277544,-0.955,0.515
2277545,-0.955,0.540
2277546,-0.945,0.580
2277547,-0.935,0.520
2277548,-0.920,0.535
2277549,-0.905,0.660
2277550,-0.915,0.780
2277551,-0.945,0.930
2277552,-0.885,1.150
2277553,-0.765,1.460
2277554,-0.695,1.585
2277555,-0.835,1.620
2277556,-1.095,1.600
2277557,-1.645,1.595
2277558,-2.240,1.630
2277559,-2.715,1.640
2277560,-3.065,1.585
2277561,-3.285,1.610
2277562,-3.290,1.660
2277563,-3.240,1.570
2277564,-3.115,1.465
2277565,-3.055,1.375
2277566,-2.980,1.260
2277567,-2.845,1.205
2277568,-2.685,1.200
2277569,-2.550,1.215
2277570,-2.410,1.220
2277571,-2.240,1.245
2277572,-2.085,1.190
2277573,-2.000,0.970
2277574,-1.915,0.765
2277575,-1.800,0.710
2277576,-1.660,0.780
2277577,-1.520,0.835
2277578,-1.370,0.935
2277579,-1.225,0.965
2277580,-1.030,0.960
2277581,-0.905,0.990
2277582,-0.800,1.020
2277583,-0.720,1.040
2277584,-0.645,1.015
2277585,-0.630,0.985
2277586,-0.590,1.005
2277587,-0.540,1.010
2277588,-0.575,0.970
2277589,-0.595,0.960
2277590,-0.620,0.995
2277591,-0.625,1.025
2277592,-0.655,1.055
2277593,-0.620,1.050
2277594,-0.580,1.080
2277595,-0.580,1.110
2277596,-0.560,1.090
2277597,-0.545,1.120
2277598,-0.550,1.165
2277599,-0.520,1.160
2277600,-0.480,1.185
2277601,-0.460,1.210
2277602,-0.435,1.240
2277603,-0.400,1.245
2277604,-0.370,1.250
2277605,-0.360,1.255
2277606,-0.340,1.250
2277607,-0.325,1.265
2277608,-0.285,1.235
2277609,-0.250,1.245
2277610,-0.210,1.260
2277611,-0.215,1.250
2277612,-0.175,1.270
2277613,-0.140,1.315
2277614,-0.115,1.320
2277615,-0.125,1.315
2277616,-0.115,1.305
2277617,-0.105,1.300
2277618,-0.065,1.290
2277619,-0.070,1.310
2277620,-0.080,1.305
2277621,-0.100,1.295
2277622,-0.110,1.280
2277623,-0.110,1.245
2277624,-0.130,1.220
2277625,-0.180,1.185
2277626,-0.280,1.175
2277627,-0.385,1.145
2277628,-0.440,1.095
2277629,-0.500,1.085
2277630,-0.590,1.050
2277631,-0.660,1.050
2277632,-0.745,1.055
2277633,-0.795,1.050
2277634,-0.805,1.020
2277635,-0.840,1.000
2277636,-0.860,1.010
2277637,-0.890,1.005
2277638,-0.900,0.980
2277639,-0.920,0.945
2277640,-0.920,0.925
2277641,-0.910,0.955
2277642,-0.935,0.950
2277643,-0.955,0.910
2277644,-0.965,0.910
2277645,-0.970,0.910
2277646,-0.975,0.910
2277647,-0.980,0.880
2277648,-0.980,0.855
2277649,-0.970,0.840
2277650,-0.950,0.825
2277651,-0.970,0.815
2277652,-0.970,0.825
2277653,-0.960,0.845
2277654,-0.950,0.850
2277655,-0.955,0.830
2277656,-0.945,0.810
2277657,-0.925,0.790
2277658,-0.935,0.770
2277659,-0.935,0.750
2277660,-0.930,0.730
2277661,-0.890,0.700
2277662,-0.925,0.695
2277663,-0.950,0.730
2277664,-0.960,0.715
2277665,-0.950,0.655
2277666,-0.950,0.615
2277667,-0.950,0.570
2277668,-0.945,0.600
2277669,-0.945,0.635
2277670,-0.980,0.630
2277671,-0.990,0.615
2277672,-0.945,0.615
2277673,-0.940,0.580
2277674,-0.975,0.495
2277675,-0.965,0.345
2277676,-1.015,0.180
2277677,-1.045,0.185
2277678,-1.065,0.170
2277679,-1.080,0.120
2277680,-1.120,0.090
2277681,-1.165,0.105
2277682,-1.160,0.120
2277683,-1.160,0.110
2277684,-1.155,0.090
2277685,-1.165,0.075
2277686,-1.175,0.070
2277687,-1.200,0.040
2277688,-1.180,-0.060
2277689,-1.185,-0.235
2277690,-1.170,-0.270
2277691,-1.205,-0.295
2277692,-1.170,-0.315
2277693,-1.145,-0.305
2277694,-1.135,-0.315
2277695,-1.175,-0.340
2277696,-1.155,-0.370
2277697,-1.135,-0.370
2277698,-1.130,-0.390
2277699,-1.115,-0.380
2277700,-1.120,-0.385
2277701,-1.110,-0.385
2277702,-1.100,-0.350
2277703,-1.115,-0.340
2277704,-1.120,-0.390
2277705,-1.120,-0.420
2277706,-1.095,-0.405
2277707,-1.100,-0.385
2277708,-1.115,-0.360
2277709,-1.080,-0.320
2277710,-1.060,-0.355
2277711,-1.065,-0.335
2277712,-1.095,-0.360
2277713,-1.095,-0.370
2277714,-1.060,-0.385
2277715,-1.055,-0.385
2277716,-1.055,-0.390
2277717,-1.060,-0.385
2277718,-1.075,-0.380
2277719,-1.060,-0.390
2277720,-1.075,-0.375
2277721,-1.080,-0.395
2277722,-1.085,-0.400
2277723,-1.045,-0.400
2277724,-1.080,-0.415
2277725,-1.075,-0.410
2277726,-1.070,-0.415
2277727,-1.060,-0.410
2277728,-1.075,-0.470
2277729,-1.105,-0.520
2277730,-1.090,-0.510
2277731,-1.070,-0.480
2277732,-1.080,-0.500
2277733,-1.090,-0.505
2277734,-1.070,-0.510
2277735,-1.070,-0.510
2277736,-1.060,-0.545
2277737,-1.075,-0.585
2277738,-1.110,-0.635
2277739,-1.140,-0.600
2277740,-1.215,-0.475
2277741,-1.215,-0.260
2277742,-1.230,-0.015
2277743,-1.160,0.235
2277744,-1.055,0.510
2277745,-1.060,0.625
2277746,-1.300,0.635
2277747,-1.735,0.595
2277748,-2.360,0.580
2277749,-2.870,0.605
2277750,-3.160,0.565
2277751,-3.420,0.465
2277752,-3.530,0.320
2277753,-3.510,0.200
2277754,-3.425,0.005
2277755,-3.310,-0.140
2277756,-3.235,-0.335
2277757,-3.145,-0.490
2277758,-2.965,-0.615
2277759,-2.845,-0.635
2277760,-2.795,-0.615
2277761,-2.665,-0.580
2277762,-2.540,-0.710
2277763,-2.430,-0.925
2277764,-2.360,-1.220
2277765,-2.265,-1.440
2277766,-2.160,-1.510
2277767,-2.010,-1.460
2277768,-1.880,-1.330
2277769,-1.735,-1.215
2277770,-1.540,-1.195
2277771,-1.360,-1.190
2277772,-1.200,-1.125
2277773,-1.030,-1.050
2277774,-0.905,-1.030
2277775,-0.855,-0.995
2277776,-0.815,-0.955
2277777,-0.775,-0.925
2277778,-0.755,-0.945
2277779,-0.710,-0.950
2277780,-0.700,-0.910
2277781,-0.665,-0.865
2277782,-0.665,-0.890
2277783,-0.650,-0.875
2277784,-0.595,-0.870
2277785,-0.605,-0.855
2277786,-0.570,-0.850
2277787,-0.545,-0.835
2277788,-0.595,-0.785
2277789,-0.625,-0.735
2277790,-0.635,-0.720
2277791,-0.605,-0.730
2277792,-0.565,-0.745
2277793,-0.580,-0.740
2277794,-0.590,-0.740
2277795,-0.595,-0.750
2277796,-0.565,-0.730
2277797,-0.570,-0.755
2277798,-0.585,-0.785
2277799,-0.540,-0.805
2277800,-0.510,-0.800
2277801,-0.500,-0.770
2277802,-0.475,-0.755
2277803,-0.465,-0.735
2277804,-0.415,-0.700
2277805,-0.385,-0.725
2277806,-0.325,-0.680
2277807,-0.290,-0.655
2277808,-0.240,-0.645
2277809,-0.220,-0.630
2277810,-0.215,-0.615
2277811,-0.185,-0.640
2277812,-0.190,-0.660
2277813,-0.195,-0.635
2277814,-0.210,-0.570
2277815,-0.260,-0.555
2277816,-0.275,-0.545
2277817,-0.290,-0.530
2277818,-0.325,-0.530
2277819,-0.365,-0.515
2277820,-0.410,-0.550
2277821,-0.465,-0.600
2277822,-0.490,-0.610
2277823,-0.525,-0.615
2277824,-0.600,-0.650
2277825,-0.640,-0.680
2277826,-0.710,-0.715
2277827,-0.760,-0.740
2277828,-0.820,-0.750
2277829,-0.870,-0.810
2277830,-0.910,-0.855
2277831,-0.960,-0.830
2277832,-0.985,-0.855
2277833,-1.015,-0.885
2277834,-1.060,-0.915
2277835,-1.060,-0.920
2277836,-1.085,-0.940
2277837,-1.100,-0.915
2277838,-1.110,-0.890
2277839,-1.095,-0.915
2277840,-1.085,-0.915
2277841,-1.110,-0.880
2277842,-1.100,-0.870
2277843,-1.075,-0.885
2277844,-1.075,-0.905
2277845,-1.095,-0.940
2277846,-1.090,-0.965
2277847,-1.080,-0.940
2277848,-1.100,-0.905
2277849,-1.080,-0.900
2277850,-1.070,-0.875
2277851,-1.050,-0.880
2277852,-1.050,-0.875
2277853,-1.045,-0.900
2277854,-1.050,-0.905
2277855,-1.040,-0.890
2277856,-1.030,-0.915
2277857,-1.015,-0.910
2277858,-1.030,-0.945
2277859,-1.005,-0.935
2277860,-0.970,-0.950
2277861,-0.965,-0.970
2277862,-0.970,-0.980
2277863,-0.960,-1.035
2277864,-0.960,-1.065
2277865,-0.960,-1.000
2277866,-0.995,-1.025
2277867,-0.970,-1.010
2277868,-0.995,-1.015
2277869,-1.020,-0.985
2277870,-1.035,-0.995
2277871,-1.050,-0.985
2277872,-1.055,-1.020
2277873,-1.065,-1.000
2277874,-1.075,-1.005
2277875,-1.140,-0.980
2277876,-1.135,-1.000
2277877,-1.135,-1.015
2277878,-1.135,-1.035
2277879,-1.125,-0.995
2277880,-1.140,-0.975
2277881,-1.120,-0.915
2277882,-1.140,-0.895
2277883,-1.100,-0.870
2277884,-1.095,-0.890
2277885,-1.080,-0.910
2277886,-1.060,-0.885
2277887,-1.050,-0.915
2277888,-1.080,-0.905
2277889,-1.050,-0.910
2277890,-1.030,-0.930
2277891,-1.055,-0.935
2277892,-1.030,-0.940
2277893,-1.020,-0.945
2277894,-1.020,-0.925
2277895,-1.015,-0.935
2277896,-1.035,-0.935
2277897,-1.045,-0.975
2277898,-1.075,-0.980
2277899,-1.035,-0.970
2277900,-1.055,-0.970
2277901,-1.040,-0.975
2277902,-1.015,-0.985
2277903,-1.005,-0.980
2277904,-0.990,-0.990
2277905,-0.995,-0.995
2277906,-1.015,-0.985
2277907,-1.000,-0.975
2277908,-0.970,-0.960
2277909,-0.970,-1.025
2277910,-0.980,-1.055
2277911,-0.970,-1.025
2277912,-1.010,-0.985
2277913,-1.030,-0.970
2277914,-1.065,-0.990
2277915,-1.085,-0.970
2277916,-1.080,-0.950
2277917,-1.100,-0.935
2277918,-1.110,-0.960
2277919,-1.115,-0.925
2277920,-1.085,-0.900
2277921,-1.095,-0.915
2277922,-1.075,-0.865
2277923,-1.110,-0.730
2277924,-1.085,-0.500
2277925,-1.035,-0.270
2277926,-0.920,-0.020
2277927,-0.850,0.110
2277928,-1.015,0.100
2277929,-1.395,0.115
2277930,-2.045,0.155
2277931,-2.635,0.245
2277932,-3.075,0.265
2277933,-3.390,0.200
2277934,-3.485,0.140
2277935,-3.440,0.065
2277936,-3.310,-0.040
2277937,-3.200,-0.150
2277938,-3.135,-0.300
2277939,-3.030,-0.410
2277940,-2.840,-0.495
2277941,-2.690,-0.575
2277942,-2.575,-0.585
2277943,-2.440,-0.605
2277944,-2.300,-0.740
2277945,-2.145,-1.000
2277946,-2.155,-1.265
2277947,-2.075,-1.395
2277948,-1.960,-1.365
2277949,-1.785,-1.275
2277950,-1.645,-1.220
2277951,-1.455,-1.185
2277952,-1.240,-1.130
2277953,-1.060,-1.065
2277954,-0.910,-1.045
2277955,-0.820,-1.035
2277956,-0.750,-0.995
2277957,-0.690,-0.995
2277958,-0.665,-1.005
2277959,-0.630,-1.000
2277960,-0.565,-0.995
2277961,-0.550,-0.955
2277962,-0.585,-0.945
2277963,-0.565,-0.960
2277964,-0.525,-0.945
2277965,-0.510,-0.940
2277966,-0.510,-0.980
2277967,-0.480,-0.995
2277968,-0.460,-0.955
2277969,-0.450,-0.900
2277970,-0.445,-0.895
2277971,-0.405,-0.900
2277972,-0.360,-0.930
2277973,-0.345,-0.920
2277974,-0.310,-0.925
2277975,-0.295,-0.935
2277976,-0.260,-0.930
2277977,-0.250,-0.915
2277978,-0.195,-0.895
2277979,-0.155,-0.865
2277980,-0.120,-0.865
2277981,-0.075,-0.885
2277982,-0.035,-0.890
2277983,0.020,-0.880
2277984,0.015,-0.860
2277985,0.020,-0.820
2277986,0.000,-0.835
2277987,0.015,-0.825
2277988,0.035,-0.815
2277989,0.045,-0.790
2277990,0.030,-0.785
2277991,0.050,-0.765
2277992,0.015,-0.760
2277993,-0.025,-0.750
2277994,-0.050,-0.695
2277995,-0.095,-0.665
2277996,-0.135,-0.650
2277997,-0.155,-0.680
2277998,-0.215,-0.705
2277999,-0.270,-0.705
2278000,-0.320,-0.725
2278001,-0.395,-0.735
2278002,-0.460,-0.740
2278003,-0.505,-0.760
2278004,-0.540,-0.815
2278005,-0.560,-0.850
2278006,-0.575,-0.850
2278007,-0.615,-0.870
2278008,-0.610,-0.910
2278009,-0.605,-0.880
2278010,-0.605,-0.910
2278011,-0.585,-0.960
2278012,-0.590,-0.955
2278013,-0.610,-0.945
2278014,-0.610,-0.935
2278015,-0.600,-0.950
2278016,-0.545,-0.935
2278017,-0.525,-0.945
2278018,-0.475,-0.925
2278019,-0.260,-0.970
2278020,-0.195,-0.975
2278021,-0.195,-0.965
2278022,-0.175,-0.970
2278023,-0.170,-0.970
2278024,-0.155,-0.960
2278025,-0.125,-0.930
2278026,-0.095,-0.940
2278027,-0.095,-0.985
2278028,-0.095,-0.995
2278029,-0.120,-1.045
2278030,-0.155,-1.060
2278031,-0.185,-1.035
2278032,-0.195,-1.060
2278033,-0.215,-1.075
2278034,-0.245,-1.095
2278035,-0.225,-1.100
2278036,-0.260,-1.090
2278037,-0.305,-1.105
2278038,-0.285,-1.110
2278039,-0.260,-1.105
2278040,-0.235,-1.095
2278041,-0.240,-1.085
2278042,-0.225,-1.065
2278043,-0.190,-1.035
2278044,-0.185,-1.030
2278045,-0.225,-1.015
2278046,-0.600,-1.025
2278047,-1.000,-1.005
2278048,-0.985,-1.015
2278049,-0.990,-0.990
2278050,-0.980,-0.935
2278051,-0.960,-0.895
2278052,-0.940,-0.915
2278053,-0.905,-0.920
2278054,-0.905,-0.895
2278055,-0.875,-0.860
2278056,-0.865,-0.850
2278057,-0.850,-0.815
2278058,-0.840,-0.780
2278059,-0.815,-0.785
2278060,-0.820,-0.775
2278061,-0.805,-0.780
2278062,-0.815,-0.790
2278063,-0.775,-0.810
2278064,-0.780,-0.810
2278065,-0.795,-0.830
2278066,-0.765,-0.825
2278067,-0.700,-0.830
2278068,-0.655,-0.880
2278069,-0.505,-0.910
2278070,-0.265,-0.945
2278071,0.035,-0.960
2278072,0.285,-0.960
2278073,0.395,-0.960
2278074,0.400,-0.955
2278075,0.385,-0.950
2278076,0.360,-0.930
2278077,0.350,-0.955
2278078,0.360,-0.935
2278079,0.405,-0.945
2278080,0.410,-0.945
2278081,0.425,-0.945
2278082,0.470,-0.955
2278083,0.530,-0.965
2278084,0.555,-1.010
2278085,0.605,-0.960
2278086,0.640,-0.895
2278087,0.665,-0.890
2278088,0.690,-0.915
2278089,0.740,-0.880
2278090,0.780,-0.865
2278091,0.815,-0.830
2278092,0.805,-0.805
2278093,0.825,-0.780
2278094,0.850,-0.820
2278095,0.860,-0.810
2278096,0.860,-0.800
2278097,0.855,-0.800
2278098,0.830,-0.805
2278099,0.830,-0.870
2278100,0.795,-0.925
2278101,0.795,-0.965
2278102,0.795,-0.995
2278103,0.805,-0.965
2278104,0.815,-0.985
2278105,0.840,-1.025
2278106,0.895,-1.085
2278107,0.945,-1.110
2278108,0.965,-1.115
2278109,0.945,-1.135
2278110,0.960,-1.160
2278111,0.965,-1.145
2278112,1.015,-1.155
2278113,1.045,-1.130
2278114,1.065,-1.080
2278115,1.100,-0.960
2278116,1.180,-0.780
2278117,1.295,-0.630
2278118,1.385,-0.400
2278119,1.485,-0.225
2278120,1.475,-0.185
2278121,1.230,-0.205
2278122,0.730,-0.160
2278123,0.180,-0.080
2278124,-0.320,0.010
2278125,-0.755,-0.020
2278126,-1.065,-0.105
2278127,-1.025,-0.180
2278128,-0.840,-0.300
2278129,-0.575,-0.380
2278130,-0.420,-0.525
2278131,-0.230,-0.650
2278132,0.000,-0.715
2278133,0.235,-0.715
2278134,0.415,-0.685
2278135,0.610,-0.615
2278136,0.805,-0.680
2278137,0.975,-0.860
2278138,1.160,-1.140
2278139,1.325,-1.310
2278140,1.480,-1.370
2278141,1.650,-1.320
2278142,1.845,-1.230
2278143,2.255,-1.185
2278144,2.655,-1.250
2278145,2.860,-1.300
2278146,2.955,-1.210
2278147,3.050,-1.160
2278148,3.125,-1.175
2278149,3.150,-1.170
2278150,3.170,-1.140
2278151,3.180,-1.135
2278152,3.210,-1.145
2278153,3.235,-1.125
2278154,3.220,-1.115
2278155,3.225,-1.115
2278156,3.255,-1.110
2278157,3.250,-1.110
2278158,3.275,-1.080
2278159,3.275,-1.065
2278160,3.305,-1.115
2278161,3.325,-1.105
2278162,3.310,-1.065
2278163,3.315,-0.985
2278164,3.350,-1.025
2278165,3.325,-1.130
2278166,3.340,-1.165
2278167,3.350,-1.175
2278168,3.365,-1.175
2278169,3.330,-1.210
2278170,3.350,-1.170
2278171,3.345,-1.110
2278172,3.335,-1.060
2278173,3.370,-1.080
2278174,3.370,-1.095
2278175,3.345,-1.085
2278176,3.355,-1.070
2278177,3.355,-1.050
2278178,3.340,-1.080
2278179,3.335,-1.020
2278180,3.330,-0.900
2278181,3.330,-0.980
2278182,3.325,-1.230
2278183,3.320,-1.300
2278184,3.310,-1.235
2278185,3.295,-1.145
2278186,3.320,-1.075
2278187,3.340,-1.055
2278188,3.310,-1.050
2278189,3.290,-1.050
2278190,3.320,-1.055
2278191,3.290,-1.030
2278192,3.310,-1.005
2278193,3.310,-0.985
2278194,3.300,-1.010
2278195,3.310,-1.040
2278196,3.300,-1.055
2278197,3.315,-1.090
2278198,3.305,-1.125
2278199,3.290,-1.125
2278200,3.295,-1.095
2278201,3.285,-1.110
2278202,3.290,-1.170
2278203,3.300,-1.200
2278204,3.290,-1.240
2278205,3.295,-1.250
2278206,3.290,-1.260
2278207,3.270,-1.295
2278208,3.265,-1.310
2278209,3.270,-1.370
2278210,3.260,-1.405
2278211,3.260,-1.405
2278212,3.245,-1.440
2278213,3.275,-1.455
2278214,3.255,-1.500
2278215,3.260,-1.490
2278216,3.240,-1.495
2278217,3.240,-1.520
2278218,3.255,-1.560
2278219,3.250,-1.565
2278220,3.235,-1.570
2278221,3.250,-1.580
2278222,3.235,-1.580
2278223,3.225,-1.600
2278224,3.260,-1.610
2278225,3.225,-1.610
2278226,3.230,-1.585
2278227,3.210,-1.590
2278228,3.230,-1.650
2278229,3.225,-1.675
2278230,3.220,-1.670
2278231,3.200,-1.665
2278232,3.220,-1.650
2278233,3.235,-1.650
2278234,3.200,-1.690
2278235,3.215,-1.705
2278236,3.200,-1.650
2278237,3.200,-1.600
2278238,3.195,-1.610
2278239,3.200,-1.580
2278240,3.210,-1.580
2278241,3.185,-1.585
2278242,3.215,-1.600
2278243,3.200,-1.595
2278244,3.220,-1.615
2278245,3.240,-1.640
2278246,3.205,-1.655
2278247,3.215,-1.590
2278248,3.200,-1.400
2278249,3.200,-1.275
2278250,3.205,-1.335
2278251,3.200,-1.470
2278252,3.215,-1.505
2278253,3.185,-1.545
2278254,3.155,-1.710
2278255,3.180,-1.810
2278256,3.180,-1.860
2278257,3.190,-1.890
2278258,3.165,-1.935
2278259,3.165,-1.990
2278260,3.165,-2.020
2278261,3.180,-2.040
2278262,3.170,-2.045
2278263,3.160,-2.045
2278264,3.170,-2.040
2278265,3.155,-2.025
2278266,3.140,-2.050
2278267,3.155,-2.030
2278268,3.160,-1.880
2278269,3.165,-1.730
2278270,3.150,-1.780
2278271,3.155,-2.095
2278272,3.160,-2.310
2278273,3.140,-2.410
2278274,3.150,-2.330
2278275,3.150,-2.265
2278276,3.130,-2.190
2278277,3.145,-2.145
2278278,3.140,-2.160
2278279,3.145,-2.190
2278280,3.150,-2.150
2278281,3.150,-2.160
2278282,3.130,-2.160
2278283,3.135,-2.185
2278284,3.140,-2.200
2278285,3.135,-2.190
2278286,3.125,-2.205
2278287,3.130,-2.270
2278288,3.140,-2.300
2278289,3.110,-2.270
2278290,3.115,-2.235
2278291,3.110,-2.260
2278292,3.120,-2.290
2278293,3.120,-2.250
2278294,3.125,-2.265
2278295,3.120,-2.280
2278296,3.100,-2.290
2278297,3.085,-2.285
2278298,3.110,-2.260
2278299,3.100,-2.250
2278300,3.090,-2.235
2278301,3.105,-2.225
2278302,3.090,-2.215
2278303,3.095,-2.215
2278304,3.105,-2.220
2278305,3.110,-2.235
2278306,3.100,-2.220
2278307,3.090,-2.250
2278308,3.080,-2.230
2278309,3.090,-2.175
2278310,3.065,-2.085
2278311,3.080,-2.060
2278312,3.060,-2.135
2278313,3.065,-2.225
2278314,3.055,-2.285
2278315,3.085,-2.335
2278316,3.070,-2.250
2278317,3.060,-2.215
2278318,3.035,-2.140
2278319,3.040,-2.005
2278320,3.075,-1.775
2278321,3.065,-1.430
2278322,3.055,-1.020
2278323,3.070,-0.685
2278324,3.050,-0.465
2278325,3.060,-0.280
2278326,3.050,-0.165
2278327,2.945,-0.025
2278328,2.695,0.010
2278329,2.395,-0.005
2278330,2.245,-0.125
2278331,2.290,-0.255
2278332,2.455,-0.410
2278333,2.610,-0.545
2278334,2.530,-0.720
2278335,2.505,-0.900
2278336,2.650,-0.965
2278337,2.765,-0.955
2278338,2.790,-0.965
2278339,2.845,-0.970
2278340,2.855,-1.160
2278341,2.920,-1.480
2278342,2.940,-1.885
2278343,2.955,-2.190
2278344,2.965,-2.355
2278345,2.980,-2.465
2278346,2.970,-2.460
2278347,2.970,-2.460
2278348,3.000,-2.505
2278349,2.995,-2.470
2278350,3.005,-2.405
2278351,2.995,-2.385
2278352,2.985,-2.425
2278353,2.995,-2.405
2278354,2.985,-2.400
2278355,3.010,-2.410
2278356,3.000,-2.405
2278357,2.995,-2.430
2278358,3.000,-2.420
2278359,2.995,-2.445
2278360,2.985,-2.475
2278361,3.000,-2.470
2278362,2.970,-2.455
2278363,2.990,-2.445
2278364,2.965,-2.450
2278365,2.975,-2.415
2278366,2.970,-2.360
2278367,2.965,-2.350
2278368,2.945,-2.350
2278369,2.965,-2.360
2278370,2.960,-2.370
2278371,2.935,-2.370
2278372,2.940,-2.365
2278373,2.940,-2.350
2278374,2.935,-2.325
2278375,2.920,-2.310
2278376,2.920,-2.325
2278377,2.900,-2.375
2278378,2.930,-2.370
2278379,2.915,-2.350
2278380,2.920,-2.305
2278381,2.910,-2.305
2278382,2.920,-2.280
2278383,2.905,-2.270
2278384,2.920,-2.265
2278385,2.910,-2.250
2278386,2.900,-2.225
2278387,2.905,-2.205
2278388,2.895,-2.180
2278389,2.910,-2.195
2278390,2.890,-2.170
2278391,2.910,-2.100
2278392,2.895,-2.090
2278393,2.900,-2.100
2278394,2.895,-2.055
2278395,2.900,-2.050
2278396,2.930,-2.050
2278397,2.910,-2.060
2278398,2.890,-2.040
2278399,2.875,-2.010
2278400,2.895,-1.995
2278401,2.875,-2.025
2278402,2.885,-2.050
2278403,2.860,-2.010
2278404,2.860,-2.035
2278405,2.870,-2.030
2278406,2.870,-2.010
2278407,2.870,-1.950
2278408,2.870,-2.010
2278409,2.855,-2.025
2278410,2.850,-1.995
2278411,2.865,-1.975
2278412,2.835,-2.000
2278413,2.835,-2.060
2278414,2.810,-2.070
2278415,2.830,-2.060
2278416,2.840,-2.025
2278417,2.850,-1.995
2278418,2.830,-2.010
2278419,2.820,-2.000
2278420,2.825,-1.940
2278421,2.835,-1.945
2278422,2.815,-1.925
2278423,2.820,-1.905
2278424,2.820,-1.900
2278425,2.805,-1.925
2278426,2.790,-1.940
2278427,2.790,-1.950
2278428,2.800,-1.950
2278429,2.810,-1.970
2278430,2.780,-1.990
2278431,2.770,-2.000
2278432,2.775,-2.010
2278433,2.770,-2.035
2278434,2.770,-2.050
2278435,2.750,-2.100
2278436,2.780,-2.110
2278437,2.770,-2.160
2278438,2.770,-2.140
2278439,2.740,-2.105
2278440,2.765,-2.125
2278441,2.770,-2.130
2278442,2.745,-2.150
2278443,2.735,-2.145
2278444,2.740,-2.140
2278445,2.735,-2.135
2278446,2.715,-2.130
2278447,2.730,-2.125
2278448,2.705,-2.065
2278449,2.705,-2.060
2278450,2.705,-2.085
2278451,2.710,-2.100
2278452,2.700,-2.070
2278453,2.690,-2.020
2278454,2.675,-1.980
2278455,2.680,-1.970
2278456,2.680,-1.950
2278457,2.680,-1.945
2278458,2.685,-1.965
2278459,2.675,-1.975
2278460,2.685,-1.940
2278461,2.665,-1.900
2278462,2.685,-1.895
2278463,2.650,-1.875
2278464,2.680,-1.835
2278465,2.665,-1.835
2278466,2.660,-1.855
2278467,2.655,-1.860
2278468,2.655,-1.810
2278469,2.665,-1.795
2278470,2.655,-1.860
2278471,2.650,-1.980
2278472,2.630,-2.020
2278473,2.620,-1.990
2278474,2.645,-1.995
2278475,2.620,-2.020
2278476,2.625,-2.015
2278477,2.610,-2.000
2278478,2.615,-1.985
2278479,2.590,-1.970
2278480,2.605,-1.950
2278481,2.610,-1.905
2278482,2.630,-1.905
2278483,2.595,-1.920
2278484,2.595,-1.900
2278485,2.580,-1.865
2278486,2.610,-1.905
2278487,2.595,-1.890
2278488,2.590,-1.840
2278489,2.580,-1.805
2278490,2.600,-1.760
2278491,2.575,-1.780
2278492,2.575,-1.755
2278493,2.575,-1.705
2278494,2.570,-1.695
2278495,2.560,-1.765
2278496,2.540,-1.740
2278497,2.535,-1.745
2278498,2.555,-1.725
2278499,2.555,-1.700
2278500,2.535,-1.690
2278501,2.550,-1.675
2278502,2.525,-1.640
2278503,2.530,-1.660
2278504,2.520,-1.665
2278505,2.510,-1.625
2278506,2.510,-1.585
2278507,2.520,-1.560
2278508,2.520,-1.580
2278509,2.520,-1.605
2278510,2.500,-1.620
2278511,2.510,-1.645
2278512,2.505,-1.670
2278513,2.500,-1.685
2278514,2.485,-1.670
2278515,2.505,-1.635
2278516,2.470,-1.600
2278517,2.490,-1.455
2278518,2.470,-1.260
2278519,2.480,-1.030
2278520,2.455,-0.725
2278521,2.465,-0.450
2278522,2.480,-0.265
2278523,2.485,-0.095
2278524,2.485,0.090
2278525,2.445,0.290
2278526,2.360,0.445
2278527,2.160,0.530
2278528,2.000,0.480
2278529,2.030,0.420
2278530,2.140,0.335
2278531,2.230,0.255
2278532,2.285,0.170
2278533,2.310,0.020
2278534,2.350,-0.100
2278535,2.370,-0.120
2278536,2.370,-0.110
2278537,2.370,-0.075
2278538,2.400,-0.115
2278539,2.400,-0.320
2278540,2.400,-0.735
2278541,2.400,-1.125
2278542,2.415,-1.410
2278543,2.415,-1.630
2278544,2.410,-1.770
2278545,2.400,-1.775
2278546,2.400,-1.770
2278547,2.385,-1.770
2278548,2.380,-1.760
2278549,2.370,-1.705
2278550,2.400,-1.705
2278551,2.385,-1.730
2278552,2.385,-1.715
2278553,2.370,-1.700
2278554,2.380,-1.655
2278555,2.355,-1.560
2278556,2.365,-1.495
2278557,2.365,-1.405
2278558,2.365,-1.320
2278559,2.365,-1.265
2278560,2.370,-1.220
2278561,2.365,-1.230
2278562,2.385,-1.215
2278563,2.365,-1.185
2278564,2.365,-1.150
2278565,2.360,-1.120
2278566,2.345,-1.130
2278567,2.340,-1.110
2278568,2.355,-1.060
2278569,2.355,-1.060
2278570,2.355,-1.080
2278571,2.335,-1.095
2278572,2.335,-1.090
2278573,2.325,-1.075
2278574,2.335,-1.115
2278575,2.320,-1.130
2278576,2.340,-1.110
2278577,2.325,-1.100
2278578,2.325,-1.090
2278579,2.315,-1.095
2278580,2.320,-1.075
2278581,2.330,-1.065
2278582,2.310,-1.050
2278583,2.305,-1.050
2278584,2.300,-1.050
2278585,2.295,-1.045
2278586,2.300,-1.030
2278587,2.295,-1.025
2278588,2.285,-1.015
2278589,2.280,-1.020
2278590,2.295,-1.015
2278591,2.285,-0.995
2278592,2.265,-1.005
2278593,2.265,-0.935
2278594,2.265,-0.910
2278595,2.285,-0.885
2278596,2.260,-0.900
2278597,2.250,-0.880
2278598,2.260,-0.815
2278599,2.250,-0.770
2278600,2.240,-0.735
2278601,2.250,-0.725
2278602,2.260,-0.700
2278603,2.270,-0.680
2278604,2.240,-0.645
2278605,2.245,-0.675
2278606,2.230,-0.690
2278607,2.230,-0.660
2278608,2.245,-0.685
2278609,2.235,-0.715
2278610,2.215,-0.720
2278611,2.205,-0.720
2278612,2.210,-0.725
2278613,2.215,-0.725
2278614,2.190,-0.710
2278615,2.200,-0.735
2278616,2.210,-0.750
2278617,2.205,-0.750
2278618,2.165,-0.720
2278619,2.180,-0.740
2278620,2.170,-0.745
2278621,2.175,-0.755
2278622,2.175,-0.715
2278623,2.170,-0.690
2278624,2.155,-0.710
2278625,2.155,-0.800
2278626,2.150,-0.805
2278627,2.145,-0.815
2278628,2.135,-0.805
2278629,2.140,-0.815
2278630,2.110,-0.855
2278631,2.125,-0.880
2278632,2.135,-0.875
2278633,2.100,-0.895
2278634,2.115,-0.915
2278635,2.125,-0.920
2278636,2.110,-0.900
2278637,2.120,-0.900
2278638,2.115,-0.885
2278639,2.110,-0.900
2278640,2.105,-0.890
2278641,2.105,-0.880
2278642,2.120,-0.860
2278643,2.115,-0.810
2278644,2.095,-0.795
2278645,2.095,-0.780
2278646,2.100,-0.755
2278647,2.115,-0.725
2278648,2.090,-0.710
2278649,2.070,-0.695
2278650,2.065,-0.675
2278651,2.060,-0.705
2278652,2.035,-0.690
2278653,2.045,-0.700
2278654,2.040,-0.715
2278655,2.070,-0.710
2278656,2.065,-0.690
2278657,2.040,-0.705
2278658,2.025,-0.690
2278659,2.000,-0.680
2278660,2.035,-0.695
2278661,2.020,-0.695
2278662,2.025,-0.700
2278663,2.010,-0.675
2278664,2.010,-0.670
2278665,1.995,-0.640
2278666,2.000,-0.655
2278667,2.010,-0.665
2278668,1.975,-0.690
2278669,1.990,-0.730
2278670,1.990,-0.720
2278671,1.980,-0.735
2278672,1.975,-0.740
2278673,1.985,-0.755
2278674,1.955,-0.750
2278675,1.975,-0.735
2278676,1.970,-0.700
2278677,1.980,-0.720
2278678,1.985,-0.715
2278679,1.980,-0.715
2278680,1.965,-0.720
2278681,1.970,-0.670
2278682,1.970,-0.640
2278683,1.960,-0.620
2278684,1.950,-0.625
2278685,1.945,-0.630
2278686,1.960,-0.610
2278687,1.975,-0.600
2278688,1.950,-0.555
2278689,1.945,-0.500
2278690,1.940,-0.345
2278691,1.920,-0.155
2278692,1.950,0.095
2278693,1.940,0.365
2278694,1.920,0.570
2278695,1.905,0.765
2278696,1.890,0.990
2278697,1.865,1.215
2278698,1.705,1.385
2278699,1.450,1.445
2278700,1.175,1.480
2278701,1.140,1.445
2278702,1.210,1.350
2278703,1.360,1.265
2278704,1.485,1.185
2278705,1.540,1.025
2278706,1.570,0.855
2278707,1.655,0.710
2278708,1.715,0.635
2278709,1.745,0.580
2278710,1.740,0.520
2278711,1.765,0.345
2278712,1.770,-0.015
2278713,1.785,-0.420
2278714,1.785,-0.705
2278715,1.770,-0.835
2278716,1.785,-0.940
2278717,1.790,-0.945
2278718,1.790,-0.965
2278719,1.795,-1.005
2278720,1.790,-1.025
2278721,1.790,-0.975
2278722,1.790,-0.935
2278723,1.790,-0.910
2278724,1.770,-0.905
2278725,1.765,-0.905
2278726,1.780,-0.910
2278727,1.775,-0.870
2278728,1.770,-0.865
2278729,1.760,-0.865
2278730,1.750,-0.845
2278731,1.745,-0.815
2278732,1.760,-0.800
2278733,1.750,-0.800
2278734,1.760,-0.790
2278735,1.745,-0.785
2278736,1.740,-0.760
2278737,1.740,-0.760
2278738,1.760,-0.765
2278739,1.740,-0.745
2278740,1.735,-0.750
2278741,1.720,-0.755
2278742,1.735,-0.745
2278743,1.740,-0.745
2278744,1.725,-0.755
2278745,1.720,-0.760
2278746,1.725,-0.795
2278747,1.720,-0.850
2278748,1.725,-0.880
2278749,1.715,-0.845
2278750,1.715,-0.880
2278751,1.710,-0.855
2278752,1.705,-0.830
2278753,1.705,-0.800
2278754,1.690,-0.800
2278755,1.700,-0.795
2278756,1.685,-0.780
2278757,1.675,-0.765
2278758,1.680,-0.750
2278759,1.675,-0.740
2278760,1.660,-0.750
2278761,1.680,-0.695
2278762,1.655,-0.680
2278763,1.660,-0.665
2278764,1.635,-0.620
2278765,1.645,-0.585
2278766,1.665,-0.575
2278767,1.655,-0.545
2278768,1.660,-0.535
2278769,1.650,-0.490
2278770,1.640,-0.485
2278771,1.640,-0.480
2278772,1.630,-0.430
2278773,1.640,-0.420
2278774,1.640,-0.435
2278775,1.620,-0.440
2278776,1.620,-0.440
2278777,1.610,-0.455
2278778,1.620,-0.470
2278779,1.630,-0.480
2278780,1.615,-0.490
2278781,1.610,-0.520
2278782,1.625,-0.545
2278783,1.610,-0.580
2278784,1.600,-0.585
2278785,1.590,-0.605
2278786,1.600,-0.605
2278787,1.585,-0.595
2278788,1.585,-0.585
2278789,1.585,-0.605
2278790,1.575,-0.595
2278791,1.575,-0.565
2278792,1.595,-0.580
2278793,1.580,-0.595
2278794,1.540,-0.615
2278795,1.535,-0.620
2278796,1.545,-0.650
2278797,1.545,-0.650
2278798,1.560,-0.670
2278799,1.530,-0.690
2278800,1.535,-0.660
2278801,1.530,-0.620
2278802,1.540,-0.630
2278803,1.525,-0.645
2278804,1.515,-0.650
2278805,1.500,-0.640
2278806,1.510,-0.655
2278807,1.505,-0.625
2278808,1.485,-0.620
2278809,1.510,-0.600
2278810,1.480,-0.585
2278811,1.500,-0.600
2278812,1.495,-0.640
2278813,1.500,-0.605
2278814,1.490,-0.600
2278815,1.480,-0.555
2278816,1.480,-0.595
2278817,1.475,-0.620
2278818,1.465,-0.630
2278819,1.465,-0.640
2278820,1.465,-0.640
2278821,1.455,-0.675
2278822,1.455,-0.690
2278823,1.470,-0.695
2278824,1.430,-0.680
2278825,1.420,-0.655
2278826,1.460,-0.605
2278827,1.445,-0.580
2278828,1.435,-0.560
2278829,1.450,-0.530
2278830,1.425,-0.535
2278831,1.440,-0.505
2278832,1.445,-0.445
2278833,1.445,-0.355
2278834,1.430,-0.175
2278835,1.415,0.115
2278836,1.405,0.500
2278837,1.410,0.765
2278838,1.405,1.010
2278839,1.395,1.210
2278840,1.255,1.415
2278841,0.915,1.575
2278842,0.510,1.620
2278843,0.120,1.560
2278844,0.020,1.510
2278845,0.155,1.420
2278846,0.335,1.310
2278847,0.480,1.190
2278848,0.540,1.035
2278849,0.595,0.895
2278850,0.735,0.765
2278851,0.860,0.725
2278852,0.890,0.745
2278853,0.945,0.775
2278854,1.030,0.675
2278855,1.100,0.355
2278856,1.125,-0.120
2278857,1.155,-0.495
2278858,1.195,-0.730
2278859,1.200,-0.865
2278860,1.220,-0.900
2278861,1.255,-0.915
2278862,1.260,-0.935
2278863,1.265,-0.910
2278864,1.285,-0.850
2278865,1.270,-0.815
2278866,1.300,-0.835
2278867,1.305,-0.825
2278868,1.295,-0.800
2278869,1.285,-0.785
2278870,1.260,-0.745
2278871,1.265,-0.725
2278872,1.275,-0.740
2278873,1.275,-0.740
2278874,1.250,-0.715
2278875,1.250,-0.665
2278876,1.230,-0.665
2278877,1.260,-0.655
2278878,1.240,-0.625
2278879,1.240,-0.640
2278880,1.240,-0.630
2278881,1.245,-0.635
2278882,1.225,-0.605
2278883,1.235,-0.605
2278884,1.195,-0.595
2278885,1.195,-0.605
2278886,1.220,-0.615
2278887,1.210,-0.610
2278888,1.215,-0.595
2278889,1.180,-0.580
2278890,1.195,-0.620
2278891,1.205,-0.650
2278892,1.210,-0.710
2278893,1.185,-0.700
2278894,1.190,-0.690
2278895,1.200,-0.665
2278896,1.200,-0.645
2278897,1.180,-0.650
2278898,1.170,-0.650
2278899,1.170,-0.645
2278900,1.170,-0.580
2278901,1.155,-0.530
2278902,1.165,-0.495
2278903,1.140,-0.485
2278904,1.140,-0.480
2278905,1.140,-0.445
2278906,1.125,-0.435
2278907,1.120,-0.420
2278908,1.115,-0.390
2278909,1.105,-0.350
2278910,1.100,-0.310
2278911,1.105,-0.270
2278912,1.090,-0.295
2278913,1.090,-0.290
2278914,1.090,-0.290
2278915,1.080,-0.280
2278916,1.090,-0.260
2278917,1.095,-0.290
2278918,1.055,-0.305
2278919,1.045,-0.310
2278920,1.065,-0.320
2278921,1.045,-0.350
2278922,1.050,-0.390
2278923,1.055,-0.415
2278924,1.035,-0.420
2278925,1.015,-0.410
2278926,1.010,-0.435
2278927,1.025,-0.475
2278928,1.025,-0.485
2278929,1.005,-0.525
2278930,0.975,-0.555
2278931,0.995,-0.545
2278932,0.980,-0.580
2278933,1.000,-0.600
2278934,0.955,-0.595
2278935,0.985,-0.595
2278936,0.960,-0.595
2278937,0.960,-0.560
2278938,0.925,-0.560
2278939,0.945,-0.565
2278940,0.920,-0.565
2278941,0.925,-0.545
2278942,0.950,-0.540
2278943,0.935,-0.510
2278944,0.910,-0.505
2278945,0.925,-0.525
2278946,0.910,-0.515
2278947,0.900,-0.515
2278948,0.920,-0.515
2278949,0.890,-0.520
2278950,0.890,-0.485
2278951,0.880,-0.465
2278952,0.920,-0.455
2278953,0.870,-0.400
2278954,0.870,-0.385
2278955,0.875,-0.380
2278956,0.885,-0.325
2278957,0.875,-0.320
2278958,0.865,-0.325
2278959,0.845,-0.340
2278960,0.845,-0.340
2278961,0.850,-0.330
2278962,0.840,-0.345
2278963,0.860,-0.375
2278964,0.850,-0.390
2278965,0.845,-0.395
2278966,0.835,-0.400
2278967,0.825,-0.440
2278968,0.815,-0.450
2278969,0.840,-0.455
2278970,0.815,-0.440
2278971,0.815,-0.420
2278972,0.800,-0.445
2278973,0.825,-0.460
2278974,0.815,-0.490
2278975,0.795,-0.510
2278976,0.795,-0.480
2278977,0.800,-0.500
2278978,0.775,-0.515
2278979,0.775,-0.505
2278980,0.785,-0.490
2278981,0.760,-0.450
2278982,0.770,-0.460
2278983,0.765,-0.495
2278984,0.770,-0.510
2278985,0.790,-0.450
2278986,0.770,-0.420
2278987,0.760,-0.405
2278988,0.765,-0.395
2278989,0.775,-0.360
2278990,0.770,-0.340
2278991,0.760,-0.330
2278992,0.745,-0.320
2278993,0.765,-0.310
2278994,0.760,-0.320
2278995,0.750,-0.335
2278996,0.760,-0.335
2278997,0.755,-0.345
2278998,0.740,-0.350
2278999,0.750,-0.360
2279000,0.750,-0.355
2279001,0.720,-0.340
2279002,0.735,-0.335
2279003,0.735,-0.335
2279004,0.750,-0.320
2279005,0.770,-0.330
2279006,0.750,-0.340
2279007,0.740,-0.260
2279008,0.730,-0.110
2279009,0.745,0.175
2279010,0.740,0.615
2279011,0.740,1.025
2279012,0.745,1.275
2279013,0.690,1.485
2279014,0.380,1.700
2279015,-0.145,1.835
2279016,-0.680,1.925
2279017,-1.150,1.925
2279018,-1.470,1.830
2279019,-1.505,1.740
2279020,-1.390,1.600
2279021,-1.140,1.420
2279022,-1.025,1.295
2279023,-0.905,1.150
2279024,-0.700,1.035
2279025,-0.545,1.030
2279026,-0.405,1.075
2279027,-0.300,1.120
2279028,-0.170,1.030
2279029,-0.030,0.720
2279030,0.075,0.235
2279031,0.175,-0.160
2279032,0.235,-0.385
2279033,0.325,-0.545
2279034,0.405,-0.585
2279035,0.450,-0.625
2279036,0.525,-0.670
2279037,0.565,-0.670
2279038,0.600,-0.595
2279039,0.635,-0.600
2279040,0.635,-0.615
2279041,0.655,-0.630
2279042,0.685,-0.670
2279043,0.670,-0.700
2279044,0.680,-0.695
2279045,0.650,-0.680
2279046,0.665,-0.700
2279047,0.680,-0.690
2279048,0.680,-0.665
2279049,0.670,-0.655
2279050,0.670,-0.625
2279051,0.690,-0.600
2279052,0.665,-0.575
2279053,0.670,-0.545
2279054,0.670,-0.540
2279055,0.665,-0.545
2279056,0.645,-0.555
2279057,0.695,-0.530
2279058,0.660,-0.465
2279059,0.680,-0.475
2279060,0.665,-0.475
2279061,0.670,-0.500
2279062,0.680,-0.500
2279063,0.680,-0.475
2279064,0.630,-0.440
2279065,0.645,-0.445
2279066,0.655,-0.430
2279067,0.655,-0.430
2279068,0.650,-0.390
2279069,0.665,-0.415
2279070,0.670,-0.455
2279071,0.665,-0.460
2279072,0.660,-0.450
2279073,0.675,-0.435
2279074,0.660,-0.460
2279075,0.665,-0.450
2279076,0.665,-0.440
2279077,0.665,-0.425
2279078,0.685,-0.415
2279079,0.665,-0.390
2279080,0.680,-0.390
2279081,0.670,-0.365
2279082,0.670,-0.305
2279083,0.670,-0.260
2279084,0.660,-0.235
2279085,0.660,-0.180
2279086,0.650,-0.160
2279087,0.645,-0.160
2279088,0.650,-0.160
2279089,0.655,-0.135
2279090,0.625,-0.130
2279091,0.635,-0.160
2279092,0.640,-0.150
2279093,0.630,-0.140
2279094,0.600,-0.145
2279095,0.615,-0.155
2279096,0.600,-0.170
2279097,0.600,-0.155
2279098,0.590,-0.155
2279099,0.565,-0.120
2279100,0.565,-0.110
2279101,0.570,-0.105
2279102,0.575,-0.115
2279103,0.540,-0.140
2279104,0.545,-0.140
2279105,0.540,-0.160
2279106,0.515,-0.155
2279107,0.520,-0.175
2279108,0.500,-0.180
2279109,0.510,-0.180
2279110,0.510,-0.205
2279111,0.520,-0.190
2279112,0.510,-0.215
2279113,0.505,-0.235
2279114,0.495,-0.310
2279115,0.500,-0.300
2279116,0.475,-0.325
2279117,0.490,-0.360
2279118,0.495,-0.355
2279119,0.480,-0.310
2279120,0.495,-0.290
2279121,0.505,-0.300
2279122,0.470,-0.310
2279123,0.505,-0.310
2279124,0.490,-0.310
2279125,0.490,-0.300
2279126,0.520,-0.320
2279127,0.505,-0.325
2279128,0.500,-0.295
2279129,0.505,-0.245
2279130,0.520,-0.235
2279131,0.475,-0.225
2279132,0.500,-0.220
2279133,0.520,-0.205
2279134,0.520,-0.130
2279135,0.505,0.015
2279136,0.515,0.260
2279137,0.520,0.565
2279138,0.530,0.885
2279139,0.560,1.130
2279140,0.490,1.360
2279141,0.255,1.625
2279142,-0.320,1.830
2279143,-0.900,1.985
2279144,-1.410,2.050
2279145,-1.710,2.030
2279146,-1.775,2.000
2279147,-1.615,1.920
2279148,-1.475,1.815
2279149,-1.330,1.710
2279150,-1.230,1.530
2279151,-1.065,1.360
2279152,-0.850,1.275
2279153,-0.735,1.235
2279154,-0.590,1.180
2279155,-0.440,1.040
2279156,-0.315,0.655
2279157,-0.235,0.175
2279158,-0.185,-0.170
2279159,-0.110,-0.395
2279160,0.005,-0.495
2279161,0.100,-0.490
2279162,0.180,-0.500
2279163,0.255,-0.515
2279164,0.345,-0.525
2279165,0.400,-0.525
2279166,0.450,-0.510
2279167,0.445,-0.480
2279168,0.450,-0.485
2279169,0.485,-0.455
2279170,0.480,-0.470
2279171,0.500,-0.495
2279172,0.505,-0.470
2279173,0.490,-0.420
2279174,0.480,-0.345
2279175,0.515,-0.335
2279176,0.495,-0.320
2279177,0.510,-0.305
2279178,0.505,-0.305
2279179,0.530,-0.290
2279180,0.520,-0.305
2279181,0.535,-0.280
2279182,0.535,-0.260
2279183,0.555,-0.265
2279184,0.530,-0.280
2279185,0.555,-0.320
2279186,0.545,-0.325
2279187,0.535,-0.345
2279188,0.555,-0.375
2279189,0.550,-0.390
2279190,0.565,-0.440
2279191,0.545,-0.475
2279192,0.550,-0.495
2279193,0.540,-0.490
2279194,0.555,-0.455
2279195,0.555,-0.450
2279196,0.555,-0.480
2279197,0.565,-0.485
2279198,0.530,-0.495
2279199,0.550,-0.465
2279200,0.560,-0.440
2279201,0.540,-0.400
2279202,0.515,-0.380
2279203,0.515,-0.330
2279204,0.515,-0.300
2279205,0.515,-0.270
2279206,0.515,-0.245
2279207,0.505,-0.220
2279208,0.500,-0.195
2279209,0.490,-0.130
2279210,0.470,-0.065
2279211,0.470,-0.040
2279212,0.460,-0.040
2279213,0.455,0.005
2279214,0.450,0.035
2279215,0.440,0.010
2279216,0.440,0.000
2279217,0.425,-0.015
2279218,0.405,-0.010
2279219,0.410,0.005
2279220,0.395,0.000
2279221,0.380,-0.005
2279222,0.360,-0.025
2279223,0.370,-0.050
2279224,0.360,-0.050
2279225,0.375,-0.065
2279226,0.340,-0.085
2279227,0.355,-0.125
2279228,0.355,-0.125
2279229,0.345,-0.155
2279230,0.315,-0.155
2279231,0.340,-0.190
2279232,0.320,-0.170
2279233,0.300,-0.160
2279234,0.300,-0.140
2279235,0.295,-0.140
2279236,0.325,-0.170
2279237,0.330,-0.230
2279238,0.310,-0.245
2279239,0.335,-0.240
2279240,0.330,-0.255
2279241,0.315,-0.200
2279242,0.325,-0.210
2279243,0.335,-0.210
2279244,0.335,-0.210
2279245,0.305,-0.240
2279246,0.265,-0.225
2279247,0.280,-0.215
2279248,0.270,-0.210
2279249,0.240,-0.160
2279250,0.240,-0.130
2279251,0.225,-0.115
2279252,0.230,-0.120
2279253,0.260,-0.095
2279254,0.240,-0.115
2279255,0.235,-0.110
2279256,0.280,-0.060
2279257,0.260,-0.060
2279258,0.260,-0.040
2279259,0.280,-0.040
2279260,0.260,-0.030
2279261,0.270,-0.050
2279262,0.265,-0.065
2279263,0.255,-0.105
2279264,0.275,-0.130
2279265,0.265,-0.135
2279266,0.235,-0.120
2279267,0.245,-0.145
2279268,0.240,-0.170
2279269,0.225,-0.175
2279270,0.225,-0.145
2279271,0.225,-0.145
2279272,0.225,-0.160
2279273,0.205,-0.155
2279274,0.225,-0.160
2279275,0.245,-0.150
2279276,0.230,-0.150
2279277,0.220,-0.165
2279278,0.220,-0.195
2279279,0.245,-0.210
2279280,0.230,-0.225
2279281,0.245,-0.220
2279282,0.210,-0.190
2279283,0.210,-0.195
2279284,0.225,-0.190
2279285,0.205,-0.160
2279286,0.200,-0.155
2279287,0.215,-0.130
2279288,0.200,-0.140
2279289,0.205,-0.120
2279290,0.195,-0.105
2279291,0.180,-0.115
2279292,0.165,-0.090
2279293,0.175,-0.075
2279294,0.180,-0.050
2279295,0.160,-0.030
2279296,0.170,-0.030
2279297,0.170,0.025
2279298,0.170,0.190
2279299,0.185,0.390
2279300,0.235,0.670
2279301,0.275,0.915
2279302,0.265,1.130
2279303,0.105,1.325
2279304,-0.295,1.495
2279305,-0.985,1.645
2279306,-1.590,1.780
2279307,-2.125,1.820
2279308,-2.465,1.815
2279309,-2.530,1.785
2279310,-2.415,1.725
2279311,-2.220,1.635
2279312,-2.015,1.545
2279313,-1.910,1.415
2279314,-1.735,1.335
2279315,-1.520,1.295
2279316,-1.365,1.240
2279317,-1.210,1.200
2279318,-1.055,1.095
2279319,-0.880,0.820
2279320,-0.765,0.380
2279321,-0.675,-0.010
2279322,-0.555,-0.245
2279323,-0.440,-0.350
2279324,-0.305,-0.405
2279325,-0.210,-0.400
2279326,-0.105,-0.385
2279327,-0.005,-0.360
2279328,0.085,-0.335
2279329,0.185,-0.330
2279330,0.215,-0.335
2279331,0.265,-0.320
2279332,0.270,-0.310
2279333,0.270,-0.360
2279334,0.280,-0.365
2279335,0.295,-0.335
2279336,0.335,-0.355
2279337,0.320,-0.385
2279338,0.295,-0.395
2279339,0.345,-0.360
2279340,0.340,-0.350
2279341,0.340,-0.380
2279342,0.360,-0.410
2279343,0.370,-0.395
2279344,0.345,-0.370
2279345,0.355,-0.375
2279346,0.370,-0.360
2279347,0.380,-0.345
2279348,0.360,-0.320
2279349,0.405,-0.270
2279350,0.425,-0.260
2279351,0.440,-0.230
2279352,0.425,-0.240
2279353,0.440,-0.285
2279354,0.455,-0.320
2279355,0.435,-0.335
2279356,0.440,-0.275
2279357,0.465,-0.265
2279358,0.490,-0.260
2279359,0.480,-0.250
2279360,0.470,-0.260
2279361,0.480,-0.255
2279362,0.505,-0.250
2279363,0.485,-0.240
2279364,0.520,-0.220
2279365,0.500,-0.195
2279366,0.505,-0.195
2279367,0.530,-0.195
2279368,0.500,-0.175
2279369,0.495,-0.145
2279370,0.475,-0.125
2279371,0.465,-0.100
2279372,0.460,-0.060
2279373,0.445,-0.050
2279374,0.425,-0.045
2279375,0.410,-0.025
2279376,0.395,-0.005
2279377,0.385,-0.030
2279378,0.355,-0.045
2279379,0.345,-0.060
2279380,0.320,-0.070
2279381,0.305,-0.075
2279382,0.270,-0.105
2279383,0.235,-0.135
2279384,0.215,-0.150
2279385,0.220,-0.115
2279386,0.190,-0.100
2279387,0.175,-0.080
2279388,0.175,-0.060
2279389,0.165,-0.075
2279390,0.180,-0.120
2279391,0.145,-0.160
2279392,0.150,-0.160
2279393,0.150,-0.160
2279394,0.120,-0.130
2279395,0.110,-0.120
2279396,0.090,-0.125
2279397,0.105,-0.120
2279398,0.100,-0.105
2279399,0.120,-0.095
2279400,0.105,-0.090
2279401,0.140,-0.100
2279402,0.140,-0.100
2279403,0.135,-0.095
2279404,0.110,-0.085
2279405,0.125,-0.080
2279406,0.135,-0.075
2279407,0.125,-0.050
2279408,0.135,-0.100
2279409,0.120,-0.130
2279410,0.100,-0.135
2279411,0.095,-0.125
2279412,0.090,-0.120
2279413,0.045,-0.120
2279414,0.070,-0.125
2279415,0.070,-0.160
2279416,0.075,-0.185
2279417,0.055,-0.215
2279418,0.035,-0.240
2279419,0.075,-0.245
2279420,0.035,-0.275
2279421,0.040,-0.275
2279422,0.020,-0.285
2279423,0.025,-0.255
2279424,0.025,-0.245
2279425,0.005,-0.175
2279426,0.000,-0.020
2279427,0.035,0.155
2279428,0.040,0.330
2279429,0.095,0.510
2279430,0.150,0.685
2279431,0.105,0.815
2279432,-0.155,1.000
2279433,-0.675,1.250
2279434,-1.335,1.460
2279435,-1.850,1.585
2279436,-2.340,1.630
2279437,-2.670,1.610
2279438,-2.705,1.575
2279439,-2.585,1.500
2279440,-2.390,1.415
2279441,-2.265,1.300
2279442,-2.185,1.145
2279443,-2.035,1.050
2279444,-1.845,1.000
2279445,-1.710,0.950
2279446,-1.550,0.925
2279447,-1.415,0.800
2279448,-1.260,0.450
2279449,-1.145,0.000
2279450,-1.040,-0.300
2279451,-0.970,-0.460
2279452,-0.850,-0.520
2279453,-0.710,-0.500
2279454,-0.590,-0.500
2279455,-0.430,-0.530
2279456,-0.230,-0.510
2279457,-0.110,-0.485
2279458,-0.010,-0.460
2279459,0.070,-0.480
2279460,0.105,-0.460
2279461,0.115,-0.435
2279462,0.145,-0.425
2279463,0.175,-0.430
2279464,0.180,-0.440
2279465,0.185,-0.420
2279466,0.195,-0.420
2279467,0.225,-0.415
2279468,0.220,-0.390
2279469,0.240,-0.355
2279470,0.210,-0.325
2279471,0.205,-0.310
2279472,0.220,-0.275
2279473,0.215,-0.260
2279474,0.240,-0.240
2279475,0.255,-0.225
2279476,0.265,-0.210
2279477,0.280,-0.185
2279478,0.300,-0.190
2279479,0.295,-0.195
2279480,0.325,-0.190
2279481,0.325,-0.160
2279482,0.340,-0.150
2279483,0.345,-0.160
2279484,0.350,-0.215
2279485,0.355,-0.200
2279486,0.375,-0.190
2279487,0.375,-0.230
2279488,0.380,-0.255
2279489,0.380,-0.300
2279490,0.390,-0.300
2279491,0.380,-0.315
2279492,0.405,-0.340
2279493,0.390,-0.355
2279494,0.395,-0.350
2279495,0.385,-0.340
2279496,0.345,-0.335
2279497,0.360,-0.340
2279498,0.350,-0.285
2279499,0.330,-0.265
2279500,0.325,-0.240
2279501,0.305,-0.200
2279502,0.310,-0.195
2279503,0.275,-0.170
2279504,0.240,-0.185
2279505,0.235,-0.225
2279506,0.190,-0.225
2279507,0.165,-0.200
2279508,0.130,-0.155
2279509,0.085,-0.150
2279510,0.075,-0.150
2279511,0.065,-0.125
2279512,0.085,-0.135
2279513,0.045,-0.145
2279514,0.055,-0.160
2279515,0.050,-0.135
2279516,0.035,-0.120
2279517,0.020,-0.155
2279518,0.030,-0.165
2279519,0.010,-0.160
2279520,-0.010,-0.160
2279521,-0.020,-0.200
2279522,-0.030,-0.180
2279523,-0.020,-0.210
2279524,-0.020,-0.215
2279525,-0.040,-0.210
2279526,-0.050,-0.220
2279527,-0.060,-0.235
2279528,-0.070,-0.255
2279529,-0.080,-0.270
2279530,-0.085,-0.305
2279531,-0.095,-0.345
2279532,-0.115,-0.355
2279533,-0.130,-0.360
2279534,-0.160,-0.360
2279535,-0.160,-0.360
2279536,-0.165,-0.355
2279537,-0.180,-0.320
2279538,-0.205,-0.350
2279539,-0.180,-0.325
2279540,-0.175,-0.300
2279541,-0.175,-0.280
2279542,-0.180,-0.330
2279543,-0.185,-0.365
2279544,-0.175,-0.380
2279545,-0.160,-0.345
2279546,-0.205,-0.310
2279547,-0.200,-0.295
2279548,-0.180,-0.275
2279549,-0.180,-0.250
2279550,-0.175,-0.250
2279551,-0.155,-0.225
2279552,-0.160,-0.200
2279553,-0.175,-0.160
2279554,-0.170,-0.145
2279555,-0.160,-0.145
2279556,-0.155,-0.175
2279557,-0.165,-0.190
2279558,-0.155,-0.215
2279559,-0.175,-0.180
2279560,-0.175,-0.190
2279561,-0.170,-0.155
2279562,-0.160,-0.165
2279563,-0.180,-0.170
2279564,-0.170,-0.170
2279565,-0.205,-0.155
2279566,-0.220,-0.160
2279567,-0.200,-0.165
2279568,-0.220,-0.185
2279569,-0.210,-0.220
2279570,-0.205,-0.255
2279571,-0.235,-0.295
2279572,-0.235,-0.330
2279573,-0.255,-0.335
2279574,-0.240,-0.340
2279575,-0.265,-0.315
2279576,-0.285,-0.295
2279577,-0.275,-0.280
2279578,-0.275,-0.280
2279579,-0.270,-0.245
2279580,-0.285,-0.275
2279581,-0.285,-0.325
2279582,-0.275,-0.335
2279583,-0.280,-0.285
2279584,-0.300,-0.290
2279585,-0.310,-0.270
2279586,-0.315,-0.270
2279587,-0.315,-0.250
2279588,-0.285,-0.250
2279589,-0.250,-0.195
2279590,-0.260,-0.175
2279591,-0.245,-0.190
2279592,-0.275,-0.215
2279593,-0.275,-0.220
2279594,-0.285,-0.205
2279595,-0.265,-0.170
2279596,-0.260,-0.155
2279597,-0.250,-0.160
2279598,-0.240,-0.110
2279599,-0.240,-0.130
2279600,-0.235,-0.115
2279601,-0.220,-0.130
2279602,-0.220,-0.130
2279603,-0.230,-0.140
2279604,-0.240,-0.170
2279605,-0.260,-0.170
2279606,-0.270,-0.165
2279607,-0.280,-0.180
2279608,-0.295,-0.200
2279609,-0.315,-0.200
2279610,-0.335,-0.240
2279611,-0.335,-0.265
2279612,-0.355,-0.270
2279613,-0.380,-0.250
2279614,-0.375,-0.255
2279615,-0.405,-0.235
2279616,-0.410,-0.225
2279617,-0.400,-0.185
2279618,-0.380,-0.190
2279619,-0.355,-0.175
2279620,-0.360,-0.080
2279621,-0.365,0.125
2279622,-0.340,0.445
2279623,-0.220,0.840
2279624,-0.170,1.225
2279625,-0.265,1.480
2279626,-0.515,1.665
2279627,-0.980,1.855
2279628,-1.600,2.075
2279629,-2.175,2.190
2279630,-2.735,2.165
2279631,-3.135,2.040
2279632,-3.270,1.965
2279633,-3.175,1.870
2279634,-2.995,1.750
2279635,-2.805,1.595
2279636,-2.640,1.430
2279637,-2.495,1.325
2279638,-2.295,1.285
2279639,-2.125,1.300
2279640,-1.995,1.320
2279641,-1.880,1.320
2279642,-1.755,1.160
2279643,-1.635,0.760
2279644,-1.505,0.270
2279645,-1.425,-0.125
2279646,-1.295,-0.365
2279647,-1.150,-0.540
2279648,-1.015,-0.605
2279649,-0.885,-0.595
2279650,-0.760,-0.650
2279651,-0.610,-0.645
2279652,-0.470,-0.595
2279653,-0.355,-0.555
2279654,-0.240,-0.555
2279655,-0.180,-0.525
2279656,-0.120,-0.530
2279657,-0.070,-0.530
2279658,-0.050,-0.510
2279659,-0.035,-0.535
2279660,-0.030,-0.550
2279661,-0.040,-0.535
2279662,-0.050,-0.510
2279663,-0.025,-0.490
2279664,-0.005,-0.465
2279665,0.000,-0.435
2279666,0.010,-0.430
2279667,0.040,-0.410
2279668,0.040,-0.385
2279669,0.080,-0.355
2279670,0.095,-0.315
2279671,0.100,-0.325
2279672,0.135,-0.330
2279673,0.185,-0.305
2279674,0.210,-0.275
2279675,0.220,-0.275
2279676,0.220,-0.290
2279677,0.265,-0.315
2279678,0.300,-0.320
2279679,0.285,-0.310
2279680,0.315,-0.330
2279681,0.305,-0.355
2279682,0.325,-0.385
2279683,0.315,-0.410
2279684,0.325,-0.450
2279685,0.315,-0.460
2279686,0.320,-0.460
2279687,0.330,-0.470
2279688,0.330,-0.500
2279689,0.345,-0.485
2279690,0.340,-0.415
2279691,0.330,-0.435
2279692,0.325,-0.415
2279693,0.310,-0.395
2279694,0.295,-0.350
2279695,0.300,-0.315
2279696,0.285,-0.310
2279697,0.250,-0.305
2279698,0.245,-0.240
2279699,0.205,-0.215
2279700,0.160,-0.180
2279701,0.125,-0.150
2279702,0.090,-0.135
2279703,0.060,-0.105
2279704,0.035,-0.095
2279705,0.015,-0.105
2279706,-0.035,-0.095
2279707,-0.075,-0.105
2279708,-0.120,-0.140
2279709,-0.120,-0.160
2279710,-0.185,-0.140
2279711,-0.180,-0.135
2279712,-0.215,-0.130
2279713,-0.235,-0.155
2279714,-0.230,-0.160
2279715,-0.275,-0.150
2279716,-0.265,-0.140
2279717,-0.290,-0.185
2279718,-0.260,-0.215
2279719,-0.275,-0.220
2279720,-0.275,-0.255
2279721,-0.300,-0.290
2279722,-0.320,-0.335
2279723,-0.310,-0.370
2279724,-0.345,-0.380
2279725,-0.345,-0.385
2279726,-0.365,-0.390
2279727,-0.400,-0.395
2279728,-0.395,-0.395
2279729,-0.400,-0.405
2279730,-0.380,-0.415
2279731,-0.380,-0.385
2279732,-0.395,-0.390
2279733,-0.385,-0.425
2279734,-0.370,-0.455
2279735,-0.415,-0.470
2279736,-0.405,-0.425
2279737,-0.430,-0.425
2279738,-0.455,-0.415
2279739,-0.425,-0.390
2279740,-0.420,-0.365
2279741,-0.385,-0.360
2279742,-0.380,-0.370
2279743,-0.390,-0.405
2279744,-0.375,-0.400
2279745,-0.365,-0.405
2279746,-0.380,-0.400
2279747,-0.375,-0.400
2279748,-0.370,-0.370
2279749,-0.395,-0.340
2279750,-0.365,-0.375
2279751,-0.350,-0.415
2279752,-0.350,-0.405
2279753,-0.355,-0.390
2279754,-0.360,-0.415
2279755,-0.360,-0.445
2279756,-0.375,-0.435
2279757,-0.340,-0.450
2279758,-0.380,-0.500
2279759,-0.385,-0.535
2279760,-0.380,-0.545
2279761,-0.385,-0.505
2279762,-0.415,-0.510
2279763,-0.465,-0.470
2279764,-0.450,-0.440
2279765,-0.450,-0.400
2279766,-0.420,-0.390
2279767,-0.425,-0.395
2279768,-0.405,-0.385
2279769,-0.350,-0.355
2279770,-0.360,-0.370
2279771,-0.355,-0.370
2279772,-0.335,-0.380
2279773,-0.365,-0.360
2279774,-0.385,-0.320
2279775,-0.400,-0.290
2279776,-0.375,-0.335
2279777,-0.345,-0.310
2279778,-0.355,-0.315
2279779,-0.360,-0.290
2279780,-0.385,-0.305
2279781,-0.360,-0.270
2279782,-0.350,-0.250
2279783,-0.340,-0.265
2279784,-0.360,-0.270
2279785,-0.335,-0.250
2279786,-0.350,-0.240
2279787,-0.350,-0.240
2279788,-0.345,-0.230
2279789,-0.345,-0.250
2279790,-0.310,-0.220
2279791,-0.305,-0.225
2279792,-0.345,-0.235
2279793,-0.345,-0.245
2279794,-0.335,-0.275
2279795,-0.340,-0.280
2279796,-0.345,-0.305
2279797,-0.320,-0.335
2279798,-0.330,-0.340
2279799,-0.325,-0.310
2279800,-0.330,-0.300
2279801,-0.350,-0.260
2279802,-0.355,-0.140
2279803,-0.345,0.045
2279804,-0.305,0.330
2279805,-0.210,0.700
2279806,-0.155,0.950
2279807,-0.320,1.145
2279808,-0.710,1.305
2279809,-1.335,1.465
2279810,-1.970,1.625
2279811,-2.565,1.725
2279812,-3.065,1.730
2279813,-3.250,1.720
2279814,-3.155,1.640
2279815,-2.950,1.545
2279816,-2.740,1.450
2279817,-2.620,1.360
2279818,-2.455,1.230
2279819,-2.255,1.150
2279820,-2.095,1.140
2279821,-2.020,1.130
2279822,-1.910,1.130
2279823,-1.775,0.975
2279824,-1.655,0.585
2279825,-1.560,0.090
2279826,-1.435,-0.305
2279827,-1.325,-0.510
2279828,-1.170,-0.625
2279829,-1.060,-0.625
2279830,-0.925,-0.605
2279831,-0.740,-0.580
2279832,-0.575,-0.565
2279833,-0.400,-0.555
2279834,-0.250,-0.575
2279835,-0.140,-0.605
2279836,-0.110,-0.585
2279837,-0.050,-0.575
2279838,-0.015,-0.560
2279839,0.000,-0.545
2279840,0.000,-0.530
2279841,0.045,-0.500
2279842,0.080,-0.470
2279843,0.100,-0.435
2279844,0.140,-0.445
2279845,0.135,-0.480
2279846,0.150,-0.480
2279847,0.150,-0.470
2279848,0.185,-0.455
2279849,0.195,-0.405
2279850,0.190,-0.390
2279851,0.190,-0.380
2279852,0.255,-0.330
2279853,0.280,-0.305
2279854,0.315,-0.335
2279855,0.335,-0.365
2279856,0.360,-0.350
2279857,0.365,-0.320
2279858,0.405,-0.330
2279859,0.425,-0.355
2279860,0.420,-0.345
2279861,0.445,-0.330
2279862,0.475,-0.335
2279863,0.495,-0.365
2279864,0.530,-0.365
2279865,0.560,-0.385
2279866,0.555,-0.405
2279867,0.575,-0.395
2279868,0.565,-0.415
2279869,0.550,-0.420
2279870,0.530,-0.405
2279871,0.515,-0.370
2279872,0.510,-0.370
2279873,0.525,-0.330
2279874,0.485,-0.310
2279875,0.460,-0.300
2279876,0.470,-0.290
2279877,0.410,-0.275
2279878,0.395,-0.260
2279879,0.375,-0.225
2279880,0.325,-0.190
2279881,0.285,-0.125
2279882,0.255,-0.120
2279883,0.235,-0.120
2279884,0.205,-0.115
2279885,0.155,-0.090
2279886,0.120,-0.075
2279887,0.100,-0.035
2279888,0.075,-0.020
2279889,0.050,-0.055
2279890,0.045,-0.070
2279891,0.045,-0.080
2279892,0.030,-0.090
2279893,0.040,-0.095
2279894,0.015,-0.080
2279895,0.000,-0.090
2279896,0.005,-0.120
2279897,0.010,-0.100
2279898,-0.020,-0.110
2279899,-0.010,-0.130
2279900,-0.010,-0.170
2279901,0.000,-0.185
2279902,-0.005,-0.215
2279903,0.005,-0.235
2279904,0.000,-0.280
2279905,0.000,-0.305
2279906,-0.025,-0.350
2279907,-0.075,-0.390
2279908,-0.120,-0.440
2279909,-0.160,-0.460
2279910,-0.160,-0.435
2279911,-0.190,-0.455
2279912,-0.170,-0.465
2279913,-0.225,-0.460
2279914,-0.205,-0.460
2279915,-0.180,-0.455
2279916,-0.195,-0.440
2279917,-0.210,-0.440
2279918,-0.185,-0.430
2279919,-0.195,-0.405
2279920,-0.170,-0.400
2279921,-0.180,-0.405
2279922,-0.170,-0.375
2279923,-0.180,-0.330
2279924,-0.170,-0.320
2279925,-0.160,-0.290
2279926,-0.125,-0.275
2279927,-0.120,-0.235
2279928,-0.115,-0.230
2279929,-0.080,-0.215
2279930,-0.050,-0.205
2279931,-0.055,-0.200
2279932,-0.060,-0.190
2279933,-0.060,-0.205
2279934,-0.040,-0.210
2279935,-0.060,-0.245
2279936,-0.045,-0.230
2279937,-0.050,-0.235
2279938,-0.060,-0.255
2279939,-0.060,-0.235
2279940,-0.050,-0.240
2279941,-0.090,-0.280
2279942,-0.075,-0.295
2279943,-0.080,-0.290
2279944,-0.090,-0.290
2279945,-0.070,-0.290
2279946,-0.060,-0.280
2279947,-0.080,-0.280
2279948,-0.110,-0.315
2279949,-0.120,-0.315
2279950,-0.145,-0.345
2279951,-0.120,-0.345
2279952,-0.150,-0.355
2279953,-0.165,-0.355
2279954,-0.170,-0.355
2279955,-0.160,-0.335
2279956,-0.175,-0.310
2279957,-0.165,-0.340
2279958,-0.195,-0.355
2279959,-0.160,-0.335
2279960,-0.155,-0.270
2279961,-0.195,-0.255
2279962,-0.170,-0.215
2279963,-0.140,-0.240
2279964,-0.115,-0.250
2279965,-0.110,-0.245
2279966,-0.110,-0.210
2279967,-0.105,-0.160
2279968,-0.110,-0.060
2279969,-0.095,0.025
2279970,-0.050,0.195
2279971,-0.015,0.490
2279972,0.080,0.800
2279973,0.065,1.005
2279974,-0.160,1.170
2279975,-0.645,1.405
2279976,-1.280,1.620
2279977,-1.955,1.765
2279978,-2.540,1.820
2279979,-2.925,1.780
2279980,-3.005,1.765
2279981,-2.930,1.695
2279982,-2.730,1.580
2279983,-2.550,1.505
2279984,-2.420,1.355
2279985,-2.290,1.210
2279986,-2.100,1.115
2279987,-1.960,1.025
2279988,-1.820,1.005
2279989,-1.685,0.955
2279990,-1.530,0.685
2279991,-1.420,0.235
2279992,-1.290,-0.160
2279993,-1.180,-0.375
2279994,-1.045,-0.550
2279995,-0.935,-0.615
2279996,-0.795,-0.560
2279997,-0.625,-0.555
2279998,-0.460,-0.565
2279999,-0.285,-0.565
2280000,-0.100,-0.530
2280001,0.045,-0.560
2280002,0.105,-0.580
2280003,0.155,-0.570
2280004,0.195,-0.540
2280005,0.195,-0.545
2280006,0.215,-0.550
2280007,0.210,-0.560
2280008,0.235,-0.520
2280009,0.245,-0.510
2280010,0.235,-0.530
2280011,0.265,-0.530
2280012,0.285,-0.515
2280013,0.285,-0.485
2280014,0.305,-0.510
2280015,0.300,-0.505
2280016,0.330,-0.500
2280017,0.360,-0.475
2280018,0.370,-0.485
2280019,0.390,-0.485
2280020,0.400,-0.475
2280021,0.425,-0.450
2280022,0.470,-0.450
2280023,0.490,-0.480
2280024,0.500,-0.445
2280025,0.530,-0.415
2280026,0.555,-0.390
2280027,0.570,-0.385
2280028,0.625,-0.410
2280029,0.670,-0.410
2280030,0.685,-0.390
2280031,0.720,-0.425
2280032,0.700,-0.435
2280033,0.740,-0.385
2280034,0.690,-0.370
2280035,0.615,-0.355
2280036,0.610,-0.385
2280037,0.640,-0.355
2280038,0.635,-0.325
2280039,0.625,-0.320
2280040,0.585,-0.310
2280041,0.555,-0.265
2280042,0.560,-0.220
2280043,0.535,-0.240
2280044,0.490,-0.195
2280045,0.455,-0.205
2280046,0.420,-0.240
2280047,0.350,-0.230
2280048,0.300,-0.230
2280049,0.270,-0.220
2280050,0.240,-0.205
2280051,0.140,-0.220
2280052,0.115,-0.235
2280053,0.110,-0.245
2280054,0.075,-0.230
2280055,0.065,-0.240
2280056,0.040,-0.260
2280057,0.025,-0.255
2280058,0.015,-0.265
2280059,-0.005,-0.290
2280060,-0.010,-0.280
2280061,-0.005,-0.240
2280062,0.000,-0.230
2280063,-0.015,-0.240
2280064,-0.045,-0.290
2280065,-0.010,-0.325
2280066,-0.030,-0.330
2280067,-0.010,-0.320
2280068,-0.045,-0.345
2280069,-0.020,-0.320
2280070,-0.015,-0.310
2280071,0.005,-0.315
2280072,-0.015,-0.320
2280073,0.005,-0.355
2280074,0.000,-0.330
2280075,-0.010,-0.340
2280076,-0.065,-0.340
2280077,-0.050,-0.320
2280078,-0.120,-0.305
2280079,-0.130,-0.330
2280080,-0.130,-0.345
2280081,-0.105,-0.350
2280082,-0.120,-0.345
2280083,-0.115,-0.375
2280084,-0.110,-0.405
2280085,-0.115,-0.415
2280086,-0.105,-0.395
2280087,-0.110,-0.400
2280088,-0.095,-0.405
2280089,-0.100,-0.390
2280090,-0.105,-0.390
2280091,-0.105,-0.410
2280092,-0.125,-0.390
2280093,-0.070,-0.410
2280094,-0.060,-0.415
2280095,-0.100,-0.415
2280096,-0.075,-0.395
2280097,-0.085,-0.380
2280098,-0.100,-0.355
2280099,-0.080,-0.385
2280100,-0.085,-0.385
2280101,-0.080,-0.355
2280102,-0.105,-0.325
2280103,-0.115,-0.305
2280104,-0.105,-0.305
2280105,-0.070,-0.310
2280106,-0.040,-0.305
2280107,-0.040,-0.310
2280108,-0.030,-0.305
2280109,-0.025,-0.305
2280110,-0.060,-0.305
2280111,-0.075,-0.270
2280112,-0.070,-0.260
2280113,-0.060,-0.285
2280114,-0.060,-0.275
2280115,-0.070,-0.250
2280116,-0.085,-0.275
2280117,-0.095,-0.285
2280118,-0.105,-0.315
2280119,-0.130,-0.350
2280120,-0.160,-0.360
2280121,-0.175,-0.340
2280122,-0.175,-0.320
2280123,-0.175,-0.315
2280124,-0.180,-0.330
2280125,-0.160,-0.310
2280126,-0.170,-0.270
2280127,-0.145,-0.240
2280128,-0.160,-0.100
2280129,-0.160,0.115
2280130,-0.120,0.345
2280131,0.000,0.650
2280132,0.085,0.865
2280133,-0.040,1.040
2280134,-0.390,1.215
2280135,-0.980,1.470
2280136,-1.675,1.660
2280137,-2.295,1.730
2280138,-2.810,1.730
2280139,-3.015,1.655
2280140,-2.980,1.535
2280141,-2.815,1.435
2280142,-2.640,1.325
2280143,-2.550,1.195
2280144,-2.370,1.015
2280145,-2.170,0.925
2280146,-1.975,0.865
2280147,-1.890,0.820
2280148,-1.730,0.720
2280149,-1.570,0.485
2280150,-1.470,0.075
2280151,-1.365,-0.335
2280152,-1.275,-0.530
2280153,-1.130,-0.635
2280154,-0.990,-0.690
2280155,-0.825,-0.675
2280156,-0.650,-0.660
2280157,-0.475,-0.660
2280158,-0.265,-0.625
2280159,-0.095,-0.610
2280160,0.020,-0.610
2280161,0.145,-0.640
2280162,0.175,-0.650
2280163,0.220,-0.615
2280164,0.190,-0.605
2280165,0.160,-0.590
2280166,0.205,-0.565
2280167,0.235,-0.525
2280168,0.275,-0.525
2280169,0.280,-0.530
2280170,0.265,-0.505
2280171,0.295,-0.460
2280172,0.300,-0.435
2280173,0.320,-0.435
2280174,0.320,-0.415
2280175,0.340,-0.400
2280176,0.370,-0.405
2280177,0.395,-0.405
2280178,0.410,-0.380
2280179,0.460,-0.345
2280180,0.480,-0.345
2280181,0.495,-0.325
2280182,0.520,-0.310
2280183,0.525,-0.320
2280184,0.565,-0.320
2280185,0.570,-0.345
2280186,0.585,-0.350
2280187,0.590,-0.345
2280188,0.595,-0.360
2280189,0.600,-0.380
2280190,0.615,-0.355
2280191,0.605,-0.330
2280192,0.600,-0.370
2280193,0.635,-0.395
2280194,0.620,-0.385
2280195,0.590,-0.350
2280196,0.610,-0.340
2280197,0.620,-0.325
2280198,0.585,-0.315
2280199,0.555,-0.305
2280200,0.520,-0.300
2280201,0.495,-0.255
2280202,0.440,-0.230
2280203,0.390,-0.220
2280204,0.375,-0.225
2280205,0.345,-0.235
2280206,0.285,-0.220
2280207,0.215,-0.180
2280208,0.170,-0.160
2280209,0.110,-0.180
2280210,0.090,-0.205
2280211,0.090,-0.185
2280212,0.060,-0.180
2280213,0.030,-0.205
2280214,0.000,-0.210
2280215,0.000,-0.225
2280216,-0.030,-0.235
2280217,-0.045,-0.240
2280218,-0.065,-0.240
2280219,-0.050,-0.240
2280220,-0.070,-0.235
2280221,-0.050,-0.280
2280222,-0.085,-0.305
2280223,-0.080,-0.310
2280224,-0.115,-0.355
2280225,-0.125,-0.390
2280226,-0.155,-0.405
2280227,-0.210,-0.405
2280228,-0.210,-0.410
2280229,-0.230,-0.415
2280230,-0.250,-0.400
2280231,-0.260,-0.390
2280232,-0.245,-0.400
2280233,-0.230,-0.415
2280234,-0.230,-0.450
2280235,-0.200,-0.445
2280236,-0.210,-0.415
2280237,-0.220,-0.390
2280238,-0.200,-0.410
2280239,-0.220,-0.395
2280240,-0.235,-0.410
2280241,-0.235,-0.420
2280242,-0.235,-0.440
2280243,-0.240,-0.415
2280244,-0.255,-0.400
2280245,-0.280,-0.410
2280246,-0.265,-0.425
2280247,-0.275,-0.400
2280248,-0.250,-0.390
2280249,-0.250,-0.395
2280250,-0.230,-0.400
2280251,-0.235,-0.365
2280252,-0.250,-0.345
2280253,-0.240,-0.355
2280254,-0.240,-0.340
2280255,-0.225,-0.330
2280256,-0.220,-0.350
2280257,-0.210,-0.380
2280258,-0.185,-0.380
2280259,-0.220,-0.395
2280260,-0.190,-0.410
2280261,-0.185,-0.420
2280262,-0.185,-0.415
2280263,-0.205,-0.405
2280264,-0.220,-0.385
2280265,-0.210,-0.420
2280266,-0.245,-0.425
2280267,-0.240,-0.390
2280268,-0.235,-0.330
2280269,-0.250,-0.290
2280270,-0.275,-0.170
2280271,-0.275,0.090
2280272,-0.210,0.435
2280273,-0.115,0.780
2280274,-0.135,0.995
2280275,-0.350,1.205
2280276,-0.790,1.385
2280277,-1.405,1.575
2280278,-2.080,1.765
2280279,-2.685,1.770
2280280,-3.095,1.690
2280281,-3.185,1.575
2280282,-3.080,1.410
2280283,-2.890,1.310
2280284,-2.695,1.170
2280285,-2.585,1.045
2280286,-2.405,0.930
2280287,-2.205,0.900
2280288,-2.040,0.935
2280289,-1.880,0.960
2280290,-1.715,0.880
2280291,-1.590,0.610
2280292,-1.490,0.195
2280293,-1.395,-0.170
2280294,-1.295,-0.455
2280295,-1.140,-0.625
2280296,-0.960,-0.665
2280297,-0.805,-0.675
2280298,-0.625,-0.685
2280299,-0.465,-0.705
2280300,-0.310,-0.715
2280301,-0.170,-0.700
2280302,-0.065,-0.725
2280303,-0.005,-0.710
2280304,0.060,-0.710
2280305,0.095,-0.685
2280306,0.110,-0.680
2280307,0.120,-0.660
2280308,0.140,-0.625
2280309,0.180,-0.585
2280310,0.190,-0.575
2280311,0.210,-0.565
2280312,0.250,-0.550
2280313,0.265,-0.560
2280314,0.265,-0.550
2280315,0.255,-0.500
2280316,0.270,-0.510
2280317,0.280,-0.470
2280318,0.310,-0.485
2280319,0.340,-0.485
2280320,0.385,-0.470
2280321,0.395,-0.455
2280322,0.425,-0.430
2280323,0.425,-0.435
2280324,0.425,-0.420
2280325,0.465,-0.405
2280326,0.505,-0.425
2280327,0.535,-0.460
2280328,0.575,-0.485
2280329,0.590,-0.485
2280330,0.600,-0.490
2280331,0.595,-0.510
2280332,0.615,-0.505
2280333,0.655,-0.515
2280334,0.625,-0.500
2280335,0.650,-0.520
2280336,0.635,-0.510
2280337,0.610,-0.515
2280338,0.555,-0.475
2280339,0.510,-0.450
2280340,0.470,-0.430
2280341,0.450,-0.420
2280342,0.400,-0.360
2280343,0.345,-0.325
2280344,0.325,-0.300
2280345,0.315,-0.240
2280346,0.245,-0.220
2280347,0.185,-0.230
2280348,0.155,-0.250
2280349,0.115,-0.255
2280350,0.080,-0.240
2280351,0.015,-0.245
2280352,-0.025,-0.230
2280353,-0.055,-0.230
2280354,-0.075,-0.245
2280355,-0.075,-0.265
2280356,-0.095,-0.270
2280357,-0.110,-0.295
2280358,-0.150,-0.280
2280359,-0.135,-0.295
2280360,-0.140,-0.270
2280361,-0.165,-0.305
2280362,-0.200,-0.290
2280363,-0.175,-0.315
2280364,-0.165,-0.345
2280365,-0.140,-0.335
2280366,-0.160,-0.350
2280367,-0.185,-0.375
2280368,-0.160,-0.400
2280369,-0.150,-0.425
2280370,-0.150,-0.410
2280371,-0.160,-0.420
2280372,-0.150,-0.460
2280373,-0.135,-0.475
2280374,-0.135,-0.460
2280375,-0.160,-0.475
2280376,-0.175,-0.490
2280377,-0.180,-0.485
2280378,-0.185,-0.500
2280379,-0.210,-0.460
2280380,-0.235,-0.475
2280381,-0.235,-0.445
2280382,-0.235,-0.470
2280383,-0.240,-0.465
2280384,-0.270,-0.475
2280385,-0.265,-0.480
2280386,-0.270,-0.465
2280387,-0.300,-0.405
2280388,-0.280,-0.390
2280389,-0.270,-0.395
2280390,-0.275,-0.410
2280391,-0.265,-0.395
2280392,-0.225,-0.395
2280393,-0.240,-0.385
2280394,-0.220,-0.380
2280395,-0.220,-0.355
2280396,-0.240,-0.345
2280397,-0.215,-0.335
2280398,-0.215,-0.335
2280399,-0.190,-0.335
2280400,-0.185,-0.340
2280401,-0.175,-0.335
2280402,-0.185,-0.330
2280403,-0.170,-0.335
2280404,-0.175,-0.345
2280405,-0.180,-0.320
2280406,-0.185,-0.345
2280407,-0.175,-0.350
2280408,-0.170,-0.360
2280409,-0.170,-0.375
2280410,-0.170,-0.375
2280411,-0.165,-0.385
2280412,-0.145,-0.390
2280413,-0.145,-0.385
2280414,-0.170,-0.405
2280415,-0.165,-0.405
2280416,-0.145,-0.425
2280417,-0.180,-0.415
2280418,-0.195,-0.440
2280419,-0.180,-0.440
2280420,-0.195,-0.440
2280421,-0.205,-0.440
2280422,-0.215,-0.465
2280423,-0.240,-0.445
2280424,-0.230,-0.395
2280425,-0.260,-0.355
2280426,-0.265,-0.365
2280427,-0.255,-0.340
2280428,-0.225,-0.370
2280429,-0.235,-0.370
2280430,-0.200,-0.355
2280431,-0.220,-0.380
2280432,-0.190,-0.405
2280433,-0.195,-0.385
2280434,-0.200,-0.365
2280435,-0.210,-0.360
2280436,-0.205,-0.360
2280437,-0.190,-0.380
2280438,-0.175,-0.385
2280439,-0.205,-0.385
2280440,-0.160,-0.370
2280441,-0.170,-0.370
2280442,-0.180,-0.390
2280443,-0.200,-0.375
2280444,-0.190,-0.375
2280445,-0.170,-0.375
2280446,-0.180,-0.365
2280447,-0.175,-0.395
2280448,-0.160,-0.380
2280449,-0.150,-0.360
2280450,-0.170,-0.360
2280451,-0.145,-0.330
2280452,-0.130,-0.345
2280453,-0.120,-0.355
2280454,-0.130,-0.355
2280455,-0.130,-0.360
2280456,-0.140,-0.340
2280457,-0.125,-0.355
2280458,-0.150,-0.360
2280459,-0.145,-0.350
2280460,-0.160,-0.340
2280461,-0.185,-0.325
2280462,-0.225,-0.305
2280463,-0.210,-0.315
2280464,-0.210,-0.290
2280465,-0.210,-0.290
2280466,-0.190,-0.265
2280467,-0.175,-0.270
2280468,-0.185,-0.275
2280469,-0.170,-0.255
2280470,-0.185,-0.260
2280471,-0.190,-0.255
2280472,-0.195,-0.255
2280473,-0.180,-0.270
2280474,-0.180,-0.275
2280475,-0.165,-0.320
2280476,-0.190,-0.350
2280477,-0.205,-0.345
2280478,-0.210,-0.335
2280479,-0.195,-0.330
2280480,-0.210,-0.355
2280481,-0.205,-0.355
2280482,-0.210,-0.380
2280483,-0.210,-0.375
2280484,-0.220,-0.370
2280485,-0.215,-0.360
2280486,-0.215,-0.365
2280487,-0.195,-0.365
2280488,-0.195,-0.375
2280489,-0.185,-0.385
2280490,-0.190,-0.385
2280491,-0.180,-0.370
2280492,-0.160,-0.360
2280493,-0.160,-0.345
2280494,-0.175,-0.340
2280495,-0.170,-0.335
2280496,-0.180,-0.360
2280497,-0.210,-0.325
2280498,-0.215,-0.300
2280499,-0.225,-0.275
2280500,-0.230,-0.270
2280501,-0.205,-0.240
2280502,-0.190,-0.225
2280503,-0.200,-0.235
2280504,-0.185,-0.265
2280505,-0.205,-0.280
2280506,-0.215,-0.295
2280507,-0.205,-0.285
2280508,-0.190,-0.270
2280509,-0.190,-0.270
2280510,-0.190,-0.245
2280511,-0.180,-0.265
2280512,-0.185,-0.270
2280513,-0.185,-0.290
2280514,-0.190,-0.270
2280515,-0.165,-0.255
2280516,-0.160,-0.255
2280517,-0.145,-0.285
2280518,-0.180,-0.280
2280519,-0.165,-0.300
2280520,-0.175,-0.305
2280521,-0.175,-0.315
2280522,-0.160,-0.300
2280523,-0.160,-0.270
2280524,-0.170,-0.280
2280525,-0.175,-0.315
2280526,-0.165,-0.315
2280527,-0.155,-0.300
2280528,-0.180,-0.310
2280529,-0.170,-0.320
2280530,-0.170,-0.320
2280531,-0.160,-0.320
2280532,-0.160,-0.305
2280533,-0.170,-0.345
2280534,-0.200,-0.360
2280535,-0.235,-0.270
2280536,-0.240,-0.175
2280537,-0.260,-0.105
2280538,-0.250,0.020
2280539,-0.230,0.250
2280540,-0.145,0.565
2280541,-0.115,0.835
2280542,-0.220,1.010
2280543,-0.490,1.165
2280544,-0.940,1.355
2280545,-1.565,1.540
2280546,-2.135,1.700
2280547,-2.685,1.755
2280548,-3.050,1.715
2280549,-3.110,1.720
2280550,-3.005,1.630
2280551,-2.845,1.490
2280552,-2.700,1.425
2280553,-2.570,1.325
2280554,-2.415,1.255
2280555,-2.225,1.210
2280556,-2.060,1.195
2280557,-1.920,1.215
2280558,-1.755,1.215
2280559,-1.605,1.040
2280560,-1.465,0.630
2280561,-1.325,0.120
2280562,-1.210,-0.265
2280563,-1.120,-0.500
2280564,-0.990,-0.630
2280565,-0.830,-0.625
2280566,-0.715,-0.570
2280567,-0.555,-0.585
2280568,-0.390,-0.585
2280569,-0.255,-0.580
2280570,-0.095,-0.535
2280571,0.010,-0.555
2280572,0.070,-0.560
2280573,0.105,-0.545
2280574,0.150,-0.545
2280575,0.175,-0.490
2280576,0.180,-0.465
2280577,0.185,-0.500
2280578,0.210,-0.475
2280579,0.260,-0.465
2280580,0.255,-0.505
2280581,0.255,-0.490
2280582,0.285,-0.470
2280583,0.295,-0.450
2280584,0.275,-0.450
2280585,0.295,-0.430
2280586,0.300,-0.435
2280587,0.310,-0.445
2280588,0.350,-0.450
2280589,0.355,-0.450
2280590,0.350,-0.435
2280591,0.370,-0.430
2280592,0.420,-0.405
2280593,0.425,-0.395
2280594,0.435,-0.435
2280595,0.475,-0.450
2280596,0.470,-0.435
2280597,0.500,-0.440
2280598,0.520,-0.465
2280599,0.565,-0.460
2280600,0.580,-0.450
2280601,0.610,-0.455
2280602,0.635,-0.465
2280603,0.680,-0.470
2280604,0.715,-0.455
2280605,0.770,-0.445
2280606,0.785,-0.415
2280607,0.775,-0.385
2280608,0.775,-0.390
2280609,0.775,-0.400
2280610,0.795,-0.385
2280611,0.790,-0.340
2280612,0.785,-0.285
2280613,0.755,-0.255
2280614,0.750,-0.265
2280615,0.725,-0.250
2280616,0.705,-0.195
2280617,0.695,-0.170
2280618,0.610,-0.135
2280619,0.595,-0.140
2280620,0.540,-0.120
2280621,0.495,-0.090
2280622,0.460,-0.050
2280623,0.390,-0.040
2280624,0.365,-0.070
2280625,0.325,-0.075
2280626,0.260,-0.080
2280627,0.230,-0.115
2280628,0.190,-0.135
2280629,0.135,-0.155
2280630,0.095,-0.145
2280631,0.060,-0.140
2280632,0.030,-0.160
2280633,0.010,-0.150
2280634,0.015,-0.155
2280635,0.010,-0.170
2280636,0.005,-0.175
2280637,-0.040,-0.200
2280638,-0.010,-0.240
2280639,-0.020,-0.220
2280640,-0.015,-0.245
2280641,-0.040,-0.240
2280642,-0.040,-0.225
2280643,-0.050,-0.225
2280644,-0.060,-0.245
2280645,-0.070,-0.275
2280646,-0.070,-0.290
2280647,-0.060,-0.310
2280648,-0.095,-0.285
2280649,-0.130,-0.305
2280650,-0.115,-0.280
2280651,-0.135,-0.270
2280652,-0.110,-0.270
2280653,-0.090,-0.280
2280654,-0.115,-0.280
2280655,-0.075,-0.255
2280656,-0.095,-0.280
2280657,-0.105,-0.310
2280658,-0.120,-0.295
2280659,-0.090,-0.315
2280660,-0.095,-0.315
2280661,-0.105,-0.315
2280662,-0.090,-0.355
2280663,-0.090,-0.370
2280664,-0.100,-0.390
2280665,-0.110,-0.400
2280666,-0.120,-0.380
2280667,-0.090,-0.370
2280668,-0.100,-0.375
2280669,-0.095,-0.355
2280670,-0.070,-0.375
2280671,-0.060,-0.380
2280672,-0.055,-0.365
2280673,-0.050,-0.360
2280674,-0.060,-0.365
2280675,-0.045,-0.395
2280676,-0.055,-0.400
2280677,-0.045,-0.395
2280678,-0.035,-0.390
2280679,-0.060,-0.380
2280680,-0.055,-0.390
2280681,-0.075,-0.390
2280682,-0.055,-0.400
2280683,-0.090,-0.410
2280684,-0.090,-0.415
2280685,-0.095,-0.395
2280686,-0.130,-0.335
2280687,-0.165,-0.330
2280688,-0.160,-0.375
2280689,-0.125,-0.375
2280690,-0.130,-0.350
2280691,-0.135,-0.315
2280692,-0.125,-0.315
2280693,-0.130,-0.305
2280694,-0.150,-0.285
2280695,-0.160,-0.275
2280696,-0.140,-0.285
2280697,-0.120,-0.290
2280698,-0.140,-0.300
2280699,-0.140,-0.310
2280700,-0.150,-0.310
2280701,-0.140,-0.310
2280702,-0.140,-0.320
2280703,-0.155,-0.310
2280704,-0.155,-0.315
2280705,-0.140,-0.320
2280706,-0.150,-0.335
2280707,-0.130,-0.315
2280708,-0.150,-0.320
2280709,-0.135,-0.325
2280710,-0.120,-0.325
2280711,-0.140,-0.355
2280712,-0.135,-0.350
2280713,-0.160,-0.350
2280714,-0.135,-0.330
2280715,-0.110,-0.305
2280716,-0.130,-0.285
2280717,-0.140,-0.290
2280718,-0.130,-0.320
2280719,-0.125,-0.345
2280720,-0.095,-0.360
2280721,-0.105,-0.375
2280722,-0.115,-0.345
2280723,-0.130,-0.345
2280724,-0.155,-0.335
2280725,-0.115,-0.290
2280726,-0.130,-0.260
2280727,-0.135,-0.200
2280728,-0.125,-0.205
2280729,-0.135,-0.195
2280730,-0.145,-0.205
2280731,-0.130,-0.215
2280732,-0.140,-0.200
2280733,-0.120,-0.210
2280734,-0.115,-0.210
2280735,-0.100,-0.200
2280736,-0.115,-0.210
2280737,-0.120,-0.200
2280738,-0.125,-0.225
2280739,-0.115,-0.220
2280740,-0.120,-0.200
2280741,-0.120,-0.095
2280742,-0.130,0.080
2280743,-0.110,0.250
2280744,-0.070,0.515
2280745,0.020,0.770
2280746,0.025,0.955
2280747,-0.170,1.100
2280748,-0.580,1.275
2280749,-1.205,1.470
2280750,-1.840,1.610
2280751,-2.380,1.670
2280752,-2.780,1.635
2280753,-2.945,1.620
2280754,-2.910,1.565
2280755,-2.755,1.430
2280756,-2.595,1.330
2280757,-2.500,1.190
2280758,-2.395,1.075
2280759,-2.235,1.030
2280760,-2.090,0.985
2280761,-1.945,0.945
2280762,-1.785,0.910
2280763,-1.630,0.750
2280764,-1.465,0.450
2280765,-1.305,0.000
2280766,-1.225,-0.325
2280767,-1.120,-0.485
2280768,-0.970,-0.580
2280769,-0.810,-0.595
2280770,-0.700,-0.580
2280771,-0.550,-0.590
2280772,-0.375,-0.585
2280773,-0.260,-0.570
2280774,-0.120,-0.550
2280775,-0.010,-0.595
2280776,0.070,-0.630
2280777,0.120,-0.635
2280778,0.115,-0.645
2280779,0.090,-0.660
2280780,0.075,-0.640
2280781,0.065,-0.610
2280782,0.100,-0.585
2280783,0.115,-0.560
2280784,0.140,-0.545
2280785,0.175,-0.500
2280786,0.230,-0.485
2280787,0.230,-0.490
2280788,0.255,-0.500
2280789,0.315,-0.465
2280790,0.340,-0.440
2280791,0.335,-0.430
2280792,0.365,-0.420
2280793,0.385,-0.390
2280794,0.400,-0.355
2280795,0.435,-0.380
2280796,0.460,-0.385
2280797,0.495,-0.395
2280798,0.520,-0.350
2280799,0.545,-0.300
2280800,0.550,-0.295
2280801,0.620,-0.305
2280802,0.645,-0.325
2280803,0.700,-0.300
2280804,0.750,-0.335
2280805,0.795,-0.330
2280806,0.820,-0.315
2280807,0.845,-0.320
2280808,0.885,-0.330
2280809,0.890,-0.335
2280810,0.895,-0.325
2280811,0.915,-0.320
2280812,0.910,-0.315
2280813,0.880,-0.305
2280814,0.915,-0.330
2280815,0.910,-0.335
2280816,0.875,-0.310
2280817,0.835,-0.335
2280818,0.735,-0.320
2280819,0.660,-0.330
2280820,0.610,-0.360
2280821,0.535,-0.340
2280822,0.455,-0.320
2280823,0.400,-0.280
2280824,0.360,-0.295
2280825,0.280,-0.280
2280826,0.220,-0.260
2280827,0.170,-0.265
2280828,0.140,-0.260
2280829,0.095,-0.310
2280830,0.080,-0.320
2280831,0.060,-0.320
2280832,0.000,-0.325
2280833,-0.040,-0.350
2280834,-0.050,-0.330
2280835,-0.070,-0.310
2280836,-0.095,-0.300
2280837,-0.085,-0.310
2280838,-0.080,-0.310
2280839,-0.065,-0.295
2280840,-0.070,-0.255
2280841,-0.010,-0.250
2280842,-0.010,-0.305
2280843,-0.005,-0.300
2280844,0.000,-0.290
2280845,-0.010,-0.290
2280846,-0.005,-0.305
2280847,0.005,-0.310
2280848,0.020,-0.320
2280849,0.025,-0.320
2280850,0.025,-0.330
2280851,0.040,-0.325
2280852,0.020,-0.340
2280853,0.005,-0.355
2280854,0.030,-0.355
2280855,0.015,-0.370
2280856,0.020,-0.400
2280857,0.050,-0.435
2280858,0.030,-0.450
2280859,0.000,-0.440
2280860,-0.040,-0.460
2280861,-0.075,-0.475
2280862,-0.090,-0.495
2280863,-0.110,-0.485
2280864,-0.105,-0.455
2280865,-0.135,-0.455
2280866,-0.130,-0.470
2280867,-0.120,-0.470
2280868,-0.140,-0.480
2280869,-0.120,-0.500
2280870,-0.140,-0.470
2280871,-0.145,-0.420
2280872,-0.140,-0.435
2280873,-0.150,-0.415
2280874,-0.150,-0.385
2280875,-0.120,-0.370
2280876,-0.080,-0.420
2280877,-0.070,-0.400
2280878,-0.085,-0.390
2280879,-0.090,-0.385
2280880,-0.110,-0.360
2280881,-0.130,-0.355
2280882,-0.080,-0.370
2280883,-0.090,-0.340
2280884,-0.085,-0.335
2280885,-0.090,-0.310
2280886,-0.100,-0.315
2280887,-0.095,-0.325
2280888,-0.080,-0.325
2280889,-0.060,-0.330
2280890,-0.060,-0.335
2280891,-0.055,-0.330
2280892,-0.060,-0.320
2280893,-0.040,-0.320
2280894,-0.015,-0.345
2280895,-0.010,-0.375
2280896,-0.010,-0.405
2280897,-0.010,-0.415
2280898,-0.045,-0.430
2280899,-0.085,-0.390
2280900,-0.120,-0.365
2280901,-0.120,-0.350
2280902,-0.135,-0.350
2280903,-0.140,-0.355
2280904,-0.140,-0.335
2280905,-0.125,-0.340
2280906,-0.145,-0.350
2280907,-0.145,-0.375
2280908,-0.120,-0.365
2280909,-0.120,-0.320
2280910,-0.145,-0.285
2280911,-0.165,-0.330
2280912,-0.160,-0.340
2280913,-0.140,-0.300
2280914,-0.150,-0.320
2280915,-0.140,-0.320
2280916,-0.140,-0.340
2280917,-0.140,-0.365
2280918,-0.130,-0.335
2280919,-0.160,-0.335
2280920,-0.120,-0.320
2280921,-0.125,-0.320
2280922,-0.120,-0.300
2280923,-0.120,-0.305
2280924,-0.160,-0.320
2280925,-0.115,-0.305
2280926,-0.135,-0.320
2280927,-0.135,-0.300
2280928,-0.145,-0.335
2280929,-0.135,-0.345
2280930,-0.100,-0.370
2280931,-0.120,-0.390
2280932,-0.130,-0.430
2280933,-0.125,-0.435
2280934,-0.140,-0.425
2280935,-0.175,-0.410
2280936,-0.215,-0.395
2280937,-0.260,-0.395
2280938,-0.245,-0.370
2280939,-0.240,-0.335
2280940,-0.240,-0.215
2280941,-0.240,-0.010
2280942,-0.225,0.295
2280943,-0.115,0.705
2280944,-0.055,1.020
2280945,-0.135,1.215
2280946,-0.365,1.430
2280947,-0.865,1.660
2280948,-1.500,1.875
2280949,-2.110,1.900
2280950,-2.670,1.830
2280951,-2.950,1.770
2280952,-2.985,1.615
2280953,-2.835,1.440
2280954,-2.655,1.300
2280955,-2.500,1.190
2280956,-2.410,1.030
2280957,-2.250,0.920
2280958,-2.065,0.920
2280959,-1.940,0.935
2280960,-1.820,0.960
2280961,-1.690,0.840
2280962,-1.560,0.530
2280963,-1.435,0.080
2280964,-1.290,-0.260
2280965,-1.145,-0.490
2280966,-0.990,-0.625
2280967,-0.830,-0.680
2280968,-0.670,-0.700
2280969,-0.510,-0.730
2280970,-0.335,-0.730
2280971,-0.210,-0.705
2280972,-0.100,-0.715
2280973,0.000,-0.705
2280974,0.065,-0.700
2280975,0.115,-0.690
2280976,0.140,-0.660
2280977,0.170,-0.625
2280978,0.190,-0.630
2280979,0.215,-0.625
2280980,0.250,-0.610
2280981,0.245,-0.570
2280982,0.270,-0.590
2280983,0.265,-0.580
2280984,0.260,-0.555
2280985,0.245,-0.535
2280986,0.270,-0.530
2280987,0.285,-0.550
2280988,0.305,-0.540
2280989,0.330,-0.510
2280990,0.355,-0.490
2280991,0.335,-0.485
2280992,0.365,-0.450
2280993,0.400,-0.390
2280994,0.435,-0.415
2280995,0.465,-0.440
2280996,0.500,-0.450
2280997,0.525,-0.430
2280998,0.565,-0.420
2280999,0.590,-0.450
2281000,0.645,-0.420
2281001,0.690,-0.400
2281002,0.730,-0.415
2281003,0.755,-0.435
2281004,0.790,-0.465
2281005,0.810,-0.485
2281006,0.820,-0.500
2281007,0.820,-0.520
2281008,0.815,-0.545
2281009,0.755,-0.515
2281010,0.690,-0.470
2281011,0.655,-0.440
2281012,0.630,-0.400
2281013,0.615,-0.365
2281014,0.595,-0.355
2281015,0.535,-0.340
2281016,0.500,-0.295
2281017,0.480,-0.250
2281018,0.410,-0.230
2281019,0.375,-0.195
2281020,0.330,-0.150
2281021,0.275,-0.140
2281022,0.250,-0.145
2281023,0.210,-0.210
2281024,0.200,-0.220
2281025,0.145,-0.205
2281026,0.100,-0.210
2281027,0.050,-0.245
2281028,0.040,-0.265
2281029,0.005,-0.275
2281030,-0.015,-0.295
2281031,-0.060,-0.300
2281032,-0.075,-0.300
2281033,-0.065,-0.305
2281034,-0.060,-0.335
2281035,-0.080,-0.380
2281036,-0.100,-0.395
2281037,-0.130,-0.405
2281038,-0.140,-0.445
2281039,-0.130,-0.450
2281040,-0.190,-0.460
2281041,-0.225,-0.465
2281042,-0.210,-0.520
2281043,-0.270,-0.535
2281044,-0.250,-0.495
2281045,-0.260,-0.460
2281046,-0.265,-0.460
2281047,-0.270,-0.490
2281048,-0.260,-0.470
2281049,-0.265,-0.445
2281050,-0.250,-0.460
2281051,-0.235,-0.455
2281052,-0.240,-0.465
2281053,-0.250,-0.460
2281054,-0.225,-0.450
2281055,-0.235,-0.455
2281056,-0.240,-0.425
2281057,-0.250,-0.435
2281058,-0.265,-0.450
2281059,-0.260,-0.475
2281060,-0.270,-0.440
2281061,-0.260,-0.380
2281062,-0.300,-0.360
2281063,-0.270,-0.375
2281064,-0.240,-0.400
2281065,-0.230,-0.360
2281066,-0.240,-0.355
2281067,-0.245,-0.345
2281068,-0.240,-0.340
2281069,-0.220,-0.355
2281070,-0.250,-0.350
2281071,-0.265,-0.395
2281072,-0.245,-0.415
2281073,-0.255,-0.435
2281074,-0.240,-0.445
2281075,-0.260,-0.445
2281076,-0.270,-0.450
2281077,-0.290,-0.455
2281078,-0.290,-0.465
2281079,-0.285,-0.455
2281080,-0.285,-0.445
2281081,-0.290,-0.435
2281082,-0.310,-0.400
2281083,-0.285,-0.320
2281084,-0.285,-0.150
2281085,-0.295,0.105
2281086,-0.285,0.470
2281087,-0.235,0.805
2281088,-0.210,1.070
2281089,-0.405,1.265
2281090,-0.765,1.455
2281091,-1.380,1.630
2281092,-2.020,1.755
2281093,-2.630,1.735
2281094,-3.050,1.675
2281095,-3.195,1.555
2281096,-3.070,1.435
2281097,-2.860,1.305
2281098,-2.680,1.210
2281099,-2.555,1.070
2281100,-2.380,1.010
2281101,-2.195,1.020
2281102,-2.075,1.035
2281103,-1.940,1.025
2281104,-1.820,0.880
2281105,-1.695,0.520
2281106,-1.570,0.080
2281107,-1.480,-0.255
2281108,-1.320,-0.490
2281109,-1.150,-0.585
2281110,-1.000,-0.615
2281111,-0.835,-0.605
2281112,-0.630,-0.610
2281113,-0.440,-0.595
2281114,-0.265,-0.575
2281115,-0.125,-0.585
2281116,0.000,-0.635
2281117,0.070,-0.635
2281118,0.120,-0.635
2281119,0.125,-0.640
2281120,0.165,-0.635
2281121,0.190,-0.655
2281122,0.210,-0.640
2281123,0.205,-0.640
2281124,0.245,-0.635
2281125,0.220,-0.640
2281126,0.195,-0.625
2281127,0.205,-0.630
2281128,0.215,-0.630
2281129,0.225,-0.585
2281130,0.210,-0.550
2281131,0.235,-0.545
2281132,0.255,-0.515
2281133,0.305,-0.520
2281134,0.325,-0.510
2281135,0.365,-0.500
2281136,0.380,-0.485
2281137,0.435,-0.500
2281138,0.440,-0.520
2281139,0.475,-0.485
2281140,0.520,-0.490
2281141,0.570,-0.485
2281142,0.615,-0.500
2281143,0.640,-0.535
2281144,0.685,-0.490
2281145,0.685,-0.500
2281146,0.715,-0.520
2281147,0.755,-0.480
2281148,0.765,-0.450
2281149,0.760,-0.435
2281150,0.780,-0.415
2281151,0.805,-0.370
2281152,0.800,-0.345
2281153,0.795,-0.285
2281154,0.750,-0.240
2281155,0.735,-0.225
2281156,0.705,-0.210
2281157,0.650,-0.155
2281158,0.600,-0.140
2281159,0.550,-0.125
2281160,0.485,-0.090
2281161,0.460,-0.105
2281162,0.385,-0.085
2281163,0.330,-0.110
2281164,0.290,-0.155
2281165,0.220,-0.210
2281166,0.165,-0.245
2281167,0.075,-0.260
2281168,0.010,-0.235
2281169,-0.025,-0.250
2281170,-0.040,-0.280
2281171,-0.055,-0.300
2281172,-0.075,-0.270
2281173,-0.065,-0.275
2281174,-0.075,-0.255
2281175,-0.080,-0.295
2281176,-0.040,-0.255
2281177,-0.015,-0.230
2281178,0.005,-0.245
2281179,-0.005,-0.260
2281180,0.010,-0.255
2281181,0.015,-0.255
2281182,0.040,-0.240
2281183,0.045,-0.270
2281184,0.020,-0.240
2281185,0.040,-0.225
2281186,0.045,-0.240
2281187,0.045,-0.250
2281188,0.055,-0.240
2281189,0.060,-0.235
2281190,0.055,-0.225
2281191,0.085,-0.240
2281192,0.065,-0.245
2281193,0.070,-0.205
2281194,0.085,-0.230
2281195,0.065,-0.240
2281196,0.060,-0.235
2281197,0.055,-0.225
2281198,0.030,-0.225
2281199,0.030,-0.230
2281200,0.020,-0.285
2281201,0.030,-0.275
2281202,0.040,-0.285
2281203,0.000,-0.290
2281204,-0.010,-0.250
2281205,-0.005,-0.220
2281206,-0.025,-0.225
2281207,0.000,-0.250
2281208,0.010,-0.260
2281209,0.015,-0.245
2281210,0.015,-0.270
2281211,0.020,-0.300
2281212,0.015,-0.265
2281213,0.025,-0.250
2281214,0.000,-0.265
2281215,0.000,-0.280
2281216,-0.005,-0.240
2281217,0.000,-0.210
2281218,-0.005,-0.115
2281219,-0.005,-0.010
2281220,0.015,0.155
2281221,0.065,0.415
2281222,0.165,0.750
2281223,0.185,1.000
2281224,0.015,1.260
2281225,-0.370,1.515
2281226,-1.030,1.765
2281227,-1.740,1.970
2281228,-2.345,2.000
2281229,-2.775,1.990
2281230,-2.890,1.935
2281231,-2.745,1.825
2281232,-2.565,1.690
2281233,-2.410,1.580
2281234,-2.315,1.410
2281235,-2.165,1.260
2281236,-2.000,1.205
2281237,-1.855,1.160
2281238,-1.715,1.145
2281239,-1.555,1.070
2281240,-1.410,0.745
2281241,-1.280,0.280
2281242,-1.200,-0.110
2281243,-1.090,-0.380
2281244,-0.980,-0.535
2281245,-0.795,-0.560
2281246,-0.670,-0.525
2281247,-0.510,-0.505
2281248,-0.345,-0.495
2281249,-0.165,-0.500
2281250,0.040,-0.485
2281251,0.155,-0.445
2281252,0.240,-0.470
2281253,0.310,-0.480
2281254,0.350,-0.465
2281255,0.375,-0.450
2281256,0.390,-0.445
2281257,0.420,-0.435
2281258,0.445,-0.395
2281259,0.465,-0.390
2281260,0.505,-0.390
2281261,0.505,-0.395
2281262,0.550,-0.395
2281263,0.545,-0.370
2281264,0.550,-0.375
2281265,0.575,-0.360
2281266,0.585,-0.340
2281267,0.605,-0.330
2281268,0.660,-0.340
2281269,0.705,-0.365
2281270,0.750,-0.365
2281271,0.770,-0.375
2281272,0.770,-0.400
2281273,0.810,-0.400
2281274,0.840,-0.395
2281275,0.885,-0.440
2281276,0.905,-0.465
2281277,0.955,-0.475
2281278,0.970,-0.465
2281279,0.985,-0.480
2281280,1.005,-0.520
2281281,1.010,-0.545
2281282,1.010,-0.535
2281283,1.015,-0.535
2281284,0.975,-0.525
2281285,0.955,-0.505
2281286,0.945,-0.450
2281287,0.925,-0.440
2281288,0.860,-0.440
2281289,0.855,-0.425
2281290,0.805,-0.360
2281291,0.735,-0.330
2281292,0.695,-0.275
2281293,0.665,-0.240
2281294,0.635,-0.210
2281295,0.585,-0.155
2281296,0.535,-0.130
2281297,0.500,-0.125
2281298,0.460,-0.100
2281299,0.425,-0.075
2281300,0.405,-0.060
2281301,0.395,-0.050
2281302,0.345,-0.050
2281303,0.325,-0.025
2281304,0.325,-0.005
2281305,0.280,0.020
2281306,0.295,-0.030
2281307,0.275,-0.090
2281308,0.250,-0.110
2281309,0.230,-0.115
2281310,0.210,-0.150
2281311,0.210,-0.135
2281312,0.235,-0.115
2281313,0.190,-0.120
2281314,0.210,-0.125
2281315,0.245,-0.145
2281316,0.225,-0.145
2281317,0.240,-0.145
2281318,0.245,-0.155
2281319,0.235,-0.195
2281320,0.240,-0.205
2281321,0.235,-0.200
2281322,0.230,-0.205
2281323,0.220,-0.225
2281324,0.230,-0.255
2281325,0.235,-0.250
2281326,0.210,-0.275
2281327,0.215,-0.265
2281328,0.170,-0.285
2281329,0.145,-0.290
2281330,0.150,-0.285
2281331,0.100,-0.300
2281332,0.085,-0.290
2281333,0.065,-0.265
2281334,0.060,-0.230
2281335,0.050,-0.235
2281336,0.030,-0.255
2281337,0.020,-0.215
2281338,0.045,-0.230
2281339,0.030,-0.230
2281340,0.045,-0.215
2281341,0.045,-0.170
2281342,0.060,-0.150
2281343,0.050,-0.170
2281344,0.035,-0.165
2281345,0.035,-0.190
2281346,0.065,-0.195
2281347,0.090,-0.180
2281348,0.060,-0.150
2281349,0.045,-0.155
2281350,0.075,-0.145
2281351,0.095,-0.170
2281352,0.100,-0.175
2281353,0.110,-0.150
2281354,0.135,-0.130
2281355,0.130,-0.135
2281356,0.160,-0.135
2281357,0.160,-0.130
2281358,0.150,-0.140
2281359,0.170,-0.140
2281360,0.165,-0.150
2281361,0.160,-0.140
2281362,0.140,-0.150
2281363,0.145,-0.140
2281364,0.165,-0.145
2281365,0.135,-0.140
2281366,0.180,-0.120
2281367,0.160,-0.135
2281368,0.170,-0.105
2281369,0.185,0.005
2281370,0.190,0.170
2281371,0.205,0.380
2281372,0.235,0.645
2281373,0.300,0.875
2281374,0.245,1.055
2281375,-0.035,1.265
2281376,-0.550,1.555
2281377,-1.275,1.750
2281378,-1.900,1.870
2281379,-2.465,1.885
2281380,-2.830,1.845
2281381,-2.930,1.770
2281382,-2.800,1.675
2281383,-2.615,1.615
2281384,-2.450,1.520
2281385,-2.330,1.360
2281386,-2.175,1.215
2281387,-1.960,1.155
2281388,-1.800,1.125
2281389,-1.685,1.080
2281390,-1.545,0.975
2281391,-1.385,0.655
2281392,-1.250,0.210
2281393,-1.160,-0.190
2281394,-1.015,-0.410
2281395,-0.880,-0.510
2281396,-0.720,-0.540
2281397,-0.605,-0.545
2281398,-0.425,-0.545
2281399,-0.240,-0.540
2281400,-0.070,-0.490
2281401,0.090,-0.440
2281402,0.240,-0.440
2281403,0.350,-0.420
2281404,0.440,-0.390
2281405,0.480,-0.410
2281406,0.520,-0.395
2281407,0.550,-0.380
2281408,0.605,-0.390
2281409,0.625,-0.400
2281410,0.645,-0.395
2281411,0.670,-0.360
2281412,0.680,-0.310
2281413,0.655,-0.300
2281414,0.685,-0.315
2281415,0.670,-0.305
2281416,0.680,-0.270
2281417,0.695,-0.270
2281418,0.710,-0.265
2281419,0.725,-0.255
2281420,0.740,-0.235
2281421,0.790,-0.200
2281422,0.815,-0.210
2281423,0.805,-0.215
2281424,0.805,-0.195
2281425,0.830,-0.215
2281426,0.835,-0.195
2281427,0.880,-0.210
2281428,0.920,-0.210
2281429,0.975,-0.220
2281430,0.980,-0.260
2281431,1.005,-0.270
2281432,1.050,-0.245
2281433,1.070,-0.250
2281434,1.090,-0.280
2281435,1.115,-0.295
2281436,1.100,-0.270
2281437,1.110,-0.250
2281438,1.095,-0.255
2281439,1.070,-0.255
2281440,1.055,-0.205
2281441,1.040,-0.175
2281442,1.020,-0.145
2281443,0.955,-0.130
2281444,0.915,-0.105
2281445,0.900,-0.070
2281446,0.880,-0.020
2281447,0.820,-0.030
2281448,0.800,-0.025
2281449,0.745,-0.020
2281450,0.680,-0.050
2281451,0.625,-0.045
2281452,0.560,-0.015
2281453,0.510,0.005
2281454,0.440,-0.015
2281455,0.395,-0.025
2281456,0.375,-0.045
2281457,0.340,-0.050
2281458,0.345,-0.060
2281459,0.335,-0.090
2281460,0.315,-0.115
2281461,0.295,-0.120
2281462,0.275,-0.130
2281463,0.260,-0.160
2281464,0.240,-0.185
2281465,0.200,-0.140
2281466,0.230,-0.130
2281467,0.215,-0.165
2281468,0.225,-0.200
2281469,0.225,-0.205
2281470,0.230,-0.235
2281471,0.220,-0.235
2281472,0.205,-0.220
2281473,0.215,-0.245
2281474,0.190,-0.240
2281475,0.165,-0.250
2281476,0.165,-0.260
2281477,0.180,-0.255
2281478,0.180,-0.245
2281479,0.175,-0.230
2281480,0.170,-0.230
2281481,0.195,-0.245
2281482,0.200,-0.275
2281483,0.205,-0.265
2281484,0.175,-0.260
2281485,0.190,-0.255
2281486,0.195,-0.265
2281487,0.195,-0.250
2281488,0.210,-0.270
2281489,0.215,-0.290
2281490,0.220,-0.290
2281491,0.220,-0.270
2281492,0.185,-0.260
2281493,0.150,-0.220
2281494,0.145,-0.200
2281495,0.155,-0.200
2281496,0.160,-0.170
2281497,0.140,-0.190
2281498,0.115,-0.170
2281499,0.100,-0.170
2281500,0.100,-0.180
2281501,0.090,-0.205
2281502,0.095,-0.215
2281503,0.110,-0.200
2281504,0.085,-0.200
2281505,0.125,-0.215
2281506,0.125,-0.225
2281507,0.135,-0.215
2281508,0.090,-0.200
2281509,0.095,-0.190
2281510,0.105,-0.180
2281511,0.110,-0.180
2281512,0.120,-0.155
2281513,0.115,-0.140
2281514,0.120,-0.145
2281515,0.135,-0.130
2281516,0.150,-0.105
2281517,0.140,-0.130
2281518,0.170,-0.150
2281519,0.180,-0.120
2281520,0.195,-0.080
2281521,0.175,0.035
2281522,0.170,0.180
2281523,0.210,0.355
2281524,0.255,0.620
2281525,0.330,0.840
2281526,0.260,0.970
2281527,-0.005,1.125
2281528,-0.505,1.330
2281529,-1.175,1.525
2281530,-1.815,1.615
2281531,-2.375,1.615
2281532,-2.740,1.595
2281533,-2.795,1.555
2281534,-2.685,1.455
2281535,-2.550,1.400
2281536,-2.390,1.360
2281537,-2.300,1.235
2281538,-2.180,1.105
2281539,-2.005,1.025
2281540,-1.855,0.965
2281541,-1.735,0.915
2281542,-1.605,0.850
2281543,-1.505,0.655
2281544,-1.370,0.265
2281545,-1.245,-0.225
2281546,-1.165,-0.520
2281547,-1.070,-0.640
2281548,-0.925,-0.690
2281549,-0.760,-0.685
2281550,-0.595,-0.660
2281551,-0.395,-0.615
2281552,-0.205,-0.575
2281553,-0.025,-0.555
2281554,0.150,-0.560
2281555,0.305,-0.550
2281556,0.395,-0.520
2281557,0.465,-0.520
2281558,0.500,-0.525
2281559,0.520,-0.500
2281560,0.555,-0.460
2281561,0.610,-0.430
2281562,0.620,-0.435
2281563,0.625,-0.435
2281564,0.625,-0.435
2281565,0.660,-0.410
2281566,0.670,-0.425
2281567,0.675,-0.440
2281568,0.690,-0.415
2281569,0.700,-0.365
2281570,0.715,-0.310
2281571,0.745,-0.280
2281572,0.785,-0.265
2281573,0.825,-0.265
2281574,0.875,-0.260
2281575,0.925,-0.275
2281576,0.960,-0.310
2281577,0.935,-0.295
2281578,0.960,-0.310
2281579,0.960,-0.325
2281580,0.960,-0.330
2281581,0.995,-0.330
2281582,1.005,-0.325
2281583,1.025,-0.345
2281584,1.015,-0.395
2281585,1.035,-0.350
2281586,1.040,-0.345
2281587,1.040,-0.380
2281588,1.055,-0.390
2281589,1.035,-0.370
2281590,1.080,-0.350
2281591,1.060,-0.320
2281592,1.030,-0.345
2281593,1.030,-0.310
2281594,1.000,-0.290
2281595,0.995,-0.235
2281596,0.940,-0.255
2281597,0.915,-0.210
2281598,0.865,-0.180
2281599,0.830,-0.130
2281600,0.775,-0.110
2281601,0.755,-0.095
2281602,0.695,-0.070
2281603,0.630,-0.045
2281604,0.585,-0.055
2281605,0.525,-0.095
2281606,0.520,-0.110
2281607,0.470,-0.150
2281608,0.430,-0.180
2281609,0.390,-0.190
2281610,0.355,-0.160
2281611,0.335,-0.160
2281612,0.320,-0.170
2281613,0.300,-0.210
2281614,0.315,-0.210
2281615,0.310,-0.210
2281616,0.320,-0.245
2281617,0.300,-0.295
2281618,0.295,-0.335
2281619,0.275,-0.335
2281620,0.265,-0.375
2281621,0.215,-0.400
2281622,0.170,-0.410
2281623,0.135,-0.385
2281624,0.110,-0.395
2281625,0.100,-0.420
2281626,0.070,-0.450
2281627,0.090,-0.455
2281628,0.080,-0.430
2281629,0.070,-0.420
2281630,0.070,-0.420
2281631,0.055,-0.395
2281632,0.095,-0.430
2281633,0.120,-0.430
2281634,0.110,-0.440
2281635,0.120,-0.440
2281636,0.090,-0.445
2281637,0.125,-0.415
2281638,0.130,-0.425
2281639,0.135,-0.455
2281640,0.160,-0.445
2281641,0.165,-0.405
2281642,0.135,-0.370
2281643,0.135,-0.375
2281644,0.145,-0.395
2281645,0.155,-0.395
2281646,0.150,-0.395
2281647,0.150,-0.390
2281648,0.140,-0.390
2281649,0.160,-0.355
2281650,0.170,-0.325
2281651,0.160,-0.320
2281652,0.190,-0.340
2281653,0.170,-0.330
2281654,0.200,-0.330
2281655,0.210,-0.330
2281656,0.185,-0.360
2281657,0.210,-0.365
2281658,0.210,-0.370
2281659,0.205,-0.365
2281660,0.210,-0.360
2281661,0.215,-0.380
2281662,0.210,-0.365
2281663,0.245,-0.345
2281664,0.235,-0.355
2281665,0.205,-0.350
2281666,0.190,-0.350
2281667,0.165,-0.360
2281668,0.150,-0.330
2281669,0.145,-0.270
2281670,0.130,-0.125
2281671,0.135,0.055
2281672,0.175,0.310
2281673,0.235,0.645
2281674,0.280,0.905
2281675,0.145,1.130
2281676,-0.200,1.350
2281677,-0.730,1.570
2281678,-1.395,1.735
2281679,-1.960,1.850
2281680,-2.505,1.825
2281681,-2.835,1.745
2281682,-2.840,1.635
2281683,-2.680,1.505
2281684,-2.475,1.360
2281685,-2.325,1.200
2281686,-2.220,1.055
2281687,-2.080,0.985
2281688,-1.895,0.955
2281689,-1.765,0.950
2281690,-1.660,0.930
2281691,-1.505,0.885
2281692,-1.340,0.640
2281693,-1.240,0.240
2281694,-1.145,-0.175
2281695,-1.030,-0.430
2281696,-0.900,-0.575
2281697,-0.760,-0.680
2281698,-0.605,-0.685
2281699,-0.410,-0.695
2281700,-0.225,-0.725
2281701,-0.050,-0.750
2281702,0.115,-0.730
2281703,0.275,-0.700
2281704,0.395,-0.710
2281705,0.475,-0.700
2281706,0.510,-0.675
2281707,0.540,-0.685
2281708,0.565,-0.690
2281709,0.565,-0.675
2281710,0.590,-0.650
2281711,0.595,-0.660
2281712,0.610,-0.635
2281713,0.635,-0.650
2281714,0.640,-0.640
2281715,0.670,-0.640
2281716,0.680,-0.650
2281717,0.665,-0.605
2281718,0.670,-0.570
2281719,0.665,-0.545
2281720,0.680,-0.525
2281721,0.705,-0.520
2281722,0.735,-0.490
2281723,0.750,-0.510
2281724,0.800,-0.535
2281725,0.825,-0.550
2281726,0.870,-0.500
2281727,0.890,-0.490
2281728,0.880,-0.490
2281729,0.940,-0.515
2281730,0.950,-0.525
2281731,0.995,-0.525
2281732,1.010,-0.500
2281733,1.040,-0.505
2281734,1.100,-0.500
2281735,1.115,-0.520
2281736,1.140,-0.525
2281737,1.140,-0.520
2281738,1.130,-0.535
2281739,1.135,-0.540
2281740,1.125,-0.500
2281741,1.070,-0.450
2281742,1.045,-0.465
2281743,1.020,-0.415
2281744,0.985,-0.360
2281745,0.945,-0.330
2281746,0.915,-0.315
2281747,0.870,-0.290
2281748,0.830,-0.260
2281749,0.780,-0.215
2281750,0.735,-0.225
2281751,0.690,-0.235
2281752,0.640,-0.235
2281753,0.620,-0.225
2281754,0.555,-0.215
2281755,0.480,-0.190
2281756,0.445,-0.175
2281757,0.415,-0.090
2281758,0.390,0.035
2281759,0.370,0.090
2281760,0.340,0.110
2281761,0.305,0.080
2281762,0.295,0.045
2281763,0.260,-0.060
2281764,0.260,-0.195
2281765,0.230,-0.290
2281766,0.245,-0.320
2281767,0.260,-0.375
2281768,0.260,-0.400
2281769,0.275,-0.435
2281770,0.270,-0.470
2281771,0.255,-0.515
2281772,0.275,-0.520
2281773,0.280,-0.565
2281774,0.310,-0.605
2281775,0.275,-0.630
2281776,0.280,-0.670
2281777,0.245,-0.685
2281778,0.235,-0.685
2281779,0.210,-0.695
2281780,0.185,-0.685
2281781,0.180,-0.700
2281782,0.170,-0.725
2281783,0.155,-0.715
2281784,0.180,-0.710
2281785,0.185,-0.715
2281786,0.165,-0.735
2281787,0.160,-0.710
2281788,0.150,-0.715
2281789,0.165,-0.735
2281790,0.180,-0.740
2281791,0.155,-0.685
2281792,0.150,-0.580
2281793,0.175,-0.440
2281794,0.160,-0.210
2281795,0.215,0.075
2281796,0.315,0.445
2281797,0.355,0.695
2281798,0.200,0.895
2281799,-0.160,1.070
2281800,-0.735,1.240
2281801,-1.425,1.340
2281802,-2.005,1.360
2281803,-2.540,1.345
2281804,-2.795,1.285
2281805,-2.750,1.160
2281806,-2.565,1.025
2281807,-2.370,0.920
2281808,-2.180,0.750
2281809,-2.085,0.595
2281810,-1.905,0.475
2281811,-1.735,0.435
2281812,-1.635,0.400
2281813,-1.535,0.400
2281814,-1.385,0.280
2281815,-1.250,-0.055
2281816,-1.150,-0.530
2281817,-1.085,-0.930
2281818,-0.990,-1.185
2281819,-0.895,-1.305
2281820,-0.730,-1.310
2281821,-0.560,-1.250
2281822,-0.365,-1.205
2281823,-0.170,-1.180
2281824,0.030,-1.150
2281825,0.165,-1.115
2281826,0.315,-1.105
2281827,0.425,-1.135
2281828,0.480,-1.125
2281829,0.520,-1.120
2281830,0.565,-1.090
2281831,0.590,-1.055
2281832,0.605,-1.060
2281833,0.655,-1.055
2281834,0.685,-1.020
2281835,0.710,-1.010
2281836,0.720,-0.995
2281837,0.755,-0.975
2281838,0.780,-0.935
2281839,0.800,-0.910
2281840,0.805,-0.895
2281841,0.800,-0.930
2281842,0.830,-0.935
2281843,0.890,-0.940
2281844,0.915,-0.950
2281845,0.915,-0.965
2281846,0.910,-0.985
2281847,0.915,-1.000
2281848,0.970,-1.020
2281849,1.025,-1.040
2281850,1.050,-1.035
2281851,1.075,-1.050
2281852,1.070,-1.065
2281853,1.100,-1.085
2281854,1.085,-1.095
2281855,1.130,-1.080
2281856,1.105,-1.065
2281857,1.145,-1.075
2281858,1.150,-1.040
2281859,1.150,-1.010
2281860,1.170,-1.030
2281861,1.150,-1.020
2281862,1.125,-0.985
2281863,1.080,-0.950
2281864,1.030,-0.925
2281865,0.990,-0.900
2281866,0.970,-0.830
2281867,0.935,-0.795
2281868,0.885,-0.760
2281869,0.825,-0.740
2281870,0.795,-0.725
2281871,0.770,-0.695
2281872,0.730,-0.695
2281873,0.700,-0.710
2281874,0.655,-0.715
2281875,0.610,-0.705
2281876,0.590,-0.705
2281877,0.555,-0.715
2281878,0.525,-0.705
2281879,0.500,-0.730
2281880,0.485,-0.770
2281881,0.445,-0.825
2281882,0.435,-0.850
2281883,0.410,-0.805
2281884,0.380,-0.805
2281885,0.375,-0.820
2281886,0.355,-0.845
2281887,0.385,-0.865
2281888,0.390,-0.875
2281889,0.380,-0.880
2281890,0.395,-0.910
2281891,0.390,-0.920
2281892,0.385,-0.925
2281893,0.360,-0.935
2281894,0.355,-0.925
2281895,0.335,-0.935
2281896,0.320,-0.925
2281897,0.315,-0.930
2281898,0.285,-0.945
2281899,0.285,-0.935
2281900,0.275,-0.945
2281901,0.260,-0.925
2281902,0.255,-0.915
2281903,0.270,-0.930
2281904,0.290,-0.920
2281905,0.300,-0.895
2281906,0.285,-0.900
2281907,0.295,-0.895
2281908,0.290,-0.865
2281909,0.285,-0.850
2281910,0.295,-0.835
2281911,0.315,-0.805
2281912,0.300,-0.815
2281913,0.305,-0.810
2281914,0.325,-0.815
2281915,0.365,-0.785
2281916,0.370,-0.800
2281917,0.365,-0.825
2281918,0.355,-0.860
2281919,0.355,-0.900
2281920,0.340,-0.915
2281921,0.300,-0.900
2281922,0.300,-0.895
2281923,0.320,-0.860
2281924,0.310,-0.860
2281925,0.325,-0.880
2281926,0.350,-0.870
2281927,0.360,-0.865
2281928,0.370,-0.850
2281929,0.375,-0.850
2281930,0.360,-0.825
2281931,0.375,-0.770
2281932,0.385,-0.595
2281933,0.380,-0.405
2281934,0.465,-0.095
2281935,0.550,0.220
2281936,0.515,0.460
2281937,0.230,0.660
2281938,-0.255,0.875
2281939,-0.975,1.055
2281940,-1.645,1.195
2281941,-2.265,1.255
2281942,-2.720,1.270
2281943,-2.820,1.260
2281944,-2.730,1.200
2281945,-2.545,1.105
2281946,-2.335,1.015
2281947,-2.185,0.910
2281948,-2.035,0.820
2281949,-1.860,0.735
2281950,-1.685,0.710
2281951,-1.565,0.705
2281952,-1.400,0.660
2281953,-1.245,0.395
2281954,-1.090,-0.115
2281955,-0.995,-0.675
2281956,-0.870,-1.040
2281957,-0.765,-1.200
2281958,-0.615,-1.240
2281959,-0.450,-1.180
2281960,-0.260,-1.135
2281961,-0.055,-1.135
2281962,0.145,-1.125
2281963,0.350,-1.120
2281964,0.505,-1.135
2281965,0.590,-1.155
2281966,0.690,-1.140
2281967,0.715,-1.110
2281968,0.725,-1.080
2281969,0.770,-1.075
2281970,0.795,-1.070
2281971,0.835,-1.085
2281972,0.875,-1.070
2281973,0.880,-1.095
2281974,0.910,-1.075
2281975,0.955,-1.055
2281976,0.970,-1.060
2281977,0.990,-1.065
2281978,1.015,-1.045
2281979,1.040,-1.025
2281980,1.055,-1.035
2281981,1.070,-1.060
2281982,1.055,-1.065
2281983,1.045,-1.040
2281984,1.085,-1.050
2281985,1.100,-1.055
2281986,1.105,-1.025
2281987,1.135,-1.010
2281988,1.150,-1.030
2281989,1.180,-1.025
2281990,1.195,-1.025
2281991,1.225,-0.995
2281992,1.270,-0.995
2281993,1.290,-0.985
2281994,1.320,-1.010
2281995,1.335,-1.040
2281996,1.340,-1.045
2281997,1.325,-0.990
2281998,1.295,-0.980
2281999,1.270,-0.935
2282000,1.270,-0.895
2282001,1.255,-0.880
2282002,1.220,-0.855
2282003,1.195,-0.830
2282004,1.125,-0.820
2282005,1.100,-0.800
2282006,1.045,-0.785
2282007,0.975,-0.770
2282008,0.925,-0.760
2282009,0.870,-0.790
2282010,0.820,-0.825
2282011,0.750,-0.800
2282012,0.680,-0.795
2282013,0.635,-0.810
2282014,0.590,-0.810
2282015,0.535,-0.805
2282016,0.515,-0.810
2282017,0.490,-0.810
2282018,0.460,-0.820
2282019,0.405,-0.810
2282020,0.380,-0.810
2282021,0.375,-0.815
2282022,0.340,-0.820
2282023,0.310,-0.815
2282024,0.345,-0.770
2282025,0.335,-0.790
2282026,0.325,-0.770
2282027,0.315,-0.740
2282028,0.335,-0.755
2282029,0.340,-0.780
2282030,0.370,-0.775
2282031,0.360,-0.790
2282032,0.345,-0.805
2282033,0.365,-0.830
2282034,0.325,-0.855
2282035,0.335,-0.840
2282036,0.320,-0.845
2282037,0.325,-0.855
2282038,0.335,-0.870
2282039,0.355,-0.860
2282040,0.345,-0.845
2282041,0.345,-0.870
2282042,0.360,-0.890
2282043,0.375,-0.860
2282044,0.375,-0.855
2282045,0.345,-0.865
2282046,0.360,-0.880
2282047,0.370,-0.865
2282048,0.365,-0.840
2282049,0.365,-0.845
2282050,0.375,-0.845
2282051,0.380,-0.835
2282052,0.400,-0.820
2282053,0.375,-0.830
2282054,0.355,-0.860
2282055,0.370,-0.860
2282056,0.350,-0.875
2282057,0.315,-0.880
2282058,0.280,-0.905
2282059,0.245,-0.885
2282060,0.225,-0.875
2282061,0.175,-0.855
2282062,0.175,-0.825
2282063,0.180,-0.790
2282064,0.190,-0.790
2282065,0.195,-0.790
2282066,0.190,-0.760
2282067,0.205,-0.780
2282068,0.225,-0.715
2282069,0.255,-0.615
2282070,0.245,-0.420
2282071,0.295,-0.150
2282072,0.405,0.135
2282073,0.420,0.365
2282074,0.270,0.550
2282075,-0.140,0.800
2282076,-0.845,1.035
2282077,-1.530,1.190
2282078,-2.140,1.240
2282079,-2.580,1.255
2282080,-2.635,1.230
2282081,-2.530,1.135
2282082,-2.345,1.030
2282083,-2.205,0.955
2282084,-2.070,0.845
2282085,-1.915,0.740
2282086,-1.735,0.695
2282087,-1.580,0.685
2282088,-1.420,0.695
2282089,-1.270,0.520
2282090,-1.080,0.070
2282091,-0.940,-0.460
2282092,-0.845,-0.845
2282093,-0.730,-1.025
2282094,-0.590,-1.125
2282095,-0.445,-1.125
2282096,-0.255,-1.060
2282097,-0.060,-1.065
2282098,0.110,-1.075
2282099,0.315,-1.020
2282100,0.470,-1.005
2282101,0.530,-1.015
2282102,0.610,-0.990
2282103,0.635,-0.960
2282104,0.685,-0.960
2282105,0.670,-0.955
2282106,0.700,-1.000
2282107,0.745,-1.010
2282108,0.750,-0.980
2282109,0.745,-0.975
2282110,0.720,-0.965
2282111,0.730,-0.930
2282112,0.755,-0.910
2282113,0.800,-0.910
2282114,0.825,-0.880
2282115,0.850,-0.875
2282116,0.900,-0.855
2282117,0.940,-0.855
2282118,0.950,-0.875
2282119,1.030,-0.840
2282120,1.020,-0.845
2282121,1.030,-0.825
2282122,1.100,-0.825
2282123,1.135,-0.820
2282124,1.175,-0.810
2282125,1.200,-0.820
2282126,1.245,-0.815
2282127,1.265,-0.780
2282128,1.315,-0.810
2282129,1.305,-0.795
2282130,1.360,-0.765
2282131,1.375,-0.765
2282132,1.350,-0.735
2282133,1.350,-0.685
2282134,1.325,-0.650
2282135,1.320,-0.590
2282136,1.285,-0.555
2282137,1.285,-0.505
2282138,1.260,-0.450
2282139,1.215,-0.430
2282140,1.205,-0.415
2282141,1.160,-0.400
2282142,1.090,-0.410
2282143,1.050,-0.400
2282144,0.970,-0.380
2282145,0.925,-0.350
2282146,0.880,-0.315
2282147,0.825,-0.240
2282148,0.775,-0.155
2282149,0.695,-0.090
2282150,0.620,-0.065
2282151,0.595,-0.075
2282152,0.515,-0.090
2282153,0.465,-0.115
2282154,0.440,-0.150
2282155,0.430,-0.160
2282156,0.405,-0.155
2282157,0.330,-0.140
2282158,0.290,-0.150
2282159,0.260,-0.150
2282160,0.285,-0.165
2282161,0.280,-0.170
2282162,0.290,-0.160
2282163,0.295,-0.130
2282164,0.285,-0.140
2282165,0.305,-0.130
2282166,0.295,-0.140
2282167,0.315,-0.150
2282168,0.325,-0.165
2282169,0.330,-0.135
2282170,0.305,-0.120
2282171,0.315,-0.135
2282172,0.315,-0.145
2282173,0.335,-0.115
2282174,0.375,-0.110
2282175,0.370,-0.100
2282176,0.370,-0.120
2282177,0.390,-0.140
2282178,0.360,-0.170
2282179,0.365,-0.185
2282180,0.350,-0.155
2282181,0.355,-0.135
2282182,0.355,-0.125
2282183,0.360,-0.120
2282184,0.355,-0.100
2282185,0.390,-0.075
2282186,0.415,-0.090
2282187,0.430,-0.105
2282188,0.420,-0.100
2282189,0.410,-0.095
2282190,0.420,-0.110
2282191,0.395,-0.120
2282192,0.370,-0.095
2282193,0.350,-0.060
2282194,0.350,-0.055
2282195,0.340,-0.090
2282196,0.325,-0.080
2282197,0.310,-0.100
2282198,0.305,-0.085
2282199,0.305,-0.100
2282200,0.285,-0.125
2282201,0.300,-0.145
2282202,0.270,-0.110
2282203,0.300,-0.130
2282204,0.295,-0.110
2282205,0.280,-0.110
2282206,0.290,-0.070
2282207,0.295,-0.055
2282208,0.310,-0.065
2282209,0.300,-0.075
2282210,0.305,-0.030
2282211,0.300,-0.060
2282212,0.315,-0.110
2282213,0.325,-0.140
2282214,0.325,-0.115
2282215,0.325,-0.115
2282216,0.295,-0.120
2282217,0.305,-0.100
2282218,0.315,-0.085
2282219,0.330,-0.110
2282220,0.340,-0.090
2282221,0.350,-0.090
2282222,0.380,-0.065
2282223,0.380,-0.095
2282224,0.375,-0.110
2282225,0.395,-0.090
2282226,0.380,-0.080
2282227,0.380,-0.060
2282228,0.370,-0.100
2282229,0.335,-0.055
2282230,0.305,0.025
2282231,0.315,0.145
2282232,0.290,0.310
2282233,0.355,0.540
2282234,0.475,0.815
2282235,0.440,0.980
2282236,0.220,1.205
2282237,-0.280,1.460
2282238,-1.045,1.715
2282239,-1.705,1.855
2282240,-2.310,1.895
2282241,-2.665,1.875
2282242,-2.675,1.825
2282243,-2.520,1.735
2282244,-2.325,1.625
2282245,-2.165,1.520
2282246,-2.055,1.390
2282247,-1.865,1.285
2282248,-1.680,1.195
2282249,-1.535,1.130
2282250,-1.390,1.065
2282251,-1.245,0.905
2282252,-1.105,0.540
2282253,-0.995,0.100
2282254,-0.920,-0.275
2282255,-0.800,-0.430
2282256,-0.615,-0.495
2282257,-0.475,-0.465
2282258,-0.290,-0.410
2282259,-0.125,-0.420
2282260,0.095,-0.460
2282261,0.280,-0.425
2282262,0.450,-0.390
2282263,0.580,-0.395
2282264,0.645,-0.430
2282265,0.670,-0.410
2282266,0.730,-0.370
2282267,0.740,-0.370
2282268,0.760,-0.360
2282269,0.790,-0.350
2282270,0.835,-0.330
2282271,0.850,-0.350
2282272,0.865,-0.350
2282273,0.855,-0.310
2282274,0.850,-0.305
2282275,0.820,-0.265
2282276,0.840,-0.275
2282277,0.855,-0.275
2282278,0.880,-0.255
2282279,0.900,-0.225
2282280,0.910,-0.215
2282281,0.920,-0.215
2282282,0.920,-0.215
2282283,0.945,-0.215
2282284,0.960,-0.190
2282285,0.975,-0.195
2282286,1.030,-0.220
2282287,1.055,-0.255
2282288,1.085,-0.265
2282289,1.110,-0.250
2282290,1.130,-0.235
2282291,1.135,-0.240
2282292,1.155,-0.230
2282293,1.215,-0.245
2282294,1.265,-0.250
2282295,1.270,-0.230
2282296,1.275,-0.250
2282297,1.290,-0.270
2282298,1.305,-0.260
2282299,1.265,-0.235
2282300,1.240,-0.235
2282301,1.195,-0.215
2282302,1.165,-0.160
2282303,1.140,-0.135
2282304,1.100,-0.105
2282305,1.050,-0.055
2282306,0.970,-0.035
2282307,0.950,-0.040
2282308,0.880,-0.030
2282309,0.860,-0.010
2282310,0.805,-0.015
2282311,0.760,-0.020
2282312,0.715,-0.030
2282313,0.665,-0.025
2282314,0.625,-0.055
2282315,0.615,-0.040
2282316,0.595,-0.055
2282317,0.550,-0.065
2282318,0.495,-0.075
2282319,0.435,-0.085
2282320,0.410,-0.095
2282321,0.355,-0.115
2282322,0.345,-0.155
2282323,0.335,-0.220
2282324,0.315,-0.250
2282325,0.270,-0.260
2282326,0.265,-0.265
2282327,0.225,-0.290
2282328,0.200,-0.275
2282329,0.220,-0.270
2282330,0.245,-0.270
2282331,0.275,-0.280
2282332,0.280,-0.305
2282333,0.275,-0.330
2282334,0.270,-0.340
2282335,0.270,-0.355
2282336,0.300,-0.330
2282337,0.310,-0.335
2282338,0.330,-0.340
2282339,0.290,-0.335
2282340,0.280,-0.335
2282341,0.280,-0.365
2282342,0.310,-0.335
2282343,0.300,-0.360
2282344,0.305,-0.340
2282345,0.335,-0.325
2282346,0.345,-0.340
2282347,0.330,-0.375
2282348,0.330,-0.385
2282349,0.320,-0.375
2282350,0.315,-0.335
2282351,0.335,-0.320
2282352,0.310,-0.335
2282353,0.340,-0.295
2282354,0.315,-0.250
2282355,0.315,-0.260
2282356,0.350,-0.250
2282357,0.345,-0.260
2282358,0.360,-0.275
2282359,0.395,-0.310
2282360,0.410,-0.290
2282361,0.385,-0.255
2282362,0.420,-0.270
2282363,0.380,-0.235
2282364,0.385,-0.230
2282365,0.410,-0.185
2282366,0.375,-0.090
2282367,0.365,0.045
2282368,0.355,0.265
2282369,0.365,0.565
2282370,0.445,0.830
2282371,0.495,1.035
2282372,0.305,1.210
2282373,-0.125,1.430
2282374,-0.780,1.615
2282375,-1.435,1.750
2282376,-2.000,1.785
2282377,-2.475,1.725
2282378,-2.595,1.650
2282379,-2.515,1.580
2282380,-2.345,1.460
2282381,-2.175,1.375
2282382,-2.030,1.250
2282383,-1.930,1.110
2282384,-1.730,1.020
2282385,-1.570,0.995
2282386,-1.510,1.010
2282387,-1.380,0.995
2282388,-1.250,0.820
2282389,-1.135,0.425
2282390,-1.035,-0.060
2282391,-0.955,-0.495
2282392,-0.815,-0.870
2282393,-0.695,-1.055
2282394,-0.535,-1.065
2282395,-0.370,-1.065
2282396,-0.170,-1.090
2282397,0.030,-1.120
2282398,0.210,-1.110
2282399,0.360,-1.085
2282400,0.480,-1.085
2282401,0.535,-1.070
2282402,0.620,-1.075
2282403,0.695,-1.060
2282404,0.705,-1.040
2282405,0.765,-1.055
2282406,0.785,-1.050
2282407,0.810,-1.055
2282408,0.830,-1.050
2282409,0.835,-1.040
2282410,0.830,-1.025
2282411,0.805,-1.020
2282412,0.830,-1.000
2282413,0.790,-0.980
2282414,0.785,-0.975
2282415,0.825,-0.975
2282416,0.850,-0.965
2282417,0.870,-0.960
2282418,0.890,-0.975
2282419,0.875,-0.985
2282420,0.915,-0.985
2282421,0.945,-0.980
2282422,0.985,-0.985
2282423,0.980,-0.975
2282424,1.015,-0.970
2282425,1.035,-0.940
2282426,1.055,-0.915
2282427,1.040,-0.890
2282428,1.065,-0.890
2282429,1.095,-0.885
2282430,1.120,-0.880
2282431,1.145,-0.870
2282432,1.130,-0.845
2282433,1.100,-0.785
2282434,1.090,-0.790
2282435,1.070,-0.855
2282436,1.040,-0.855
2282437,1.020,-0.825
2282438,0.980,-0.770
2282439,0.930,-0.740
2282440,0.865,-0.750
2282441,0.825,-0.700
2282442,0.780,-0.690
2282443,0.760,-0.680
2282444,0.680,-0.640
2282445,0.640,-0.660
2282446,0.615,-0.650
2282447,0.570,-0.680
2282448,0.520,-0.720
2282449,0.445,-0.720
2282450,0.430,-0.740
2282451,0.360,-0.765
2282452,0.320,-0.770
2282453,0.255,-0.760
2282454,0.215,-0.755
2282455,0.195,-0.770
2282456,0.175,-0.815
2282457,0.175,-0.825
2282458,0.140,-0.865
2282459,0.100,-0.915
2282460,0.095,-0.940
2282461,0.005,-0.915
2282462,-0.050,-0.865
2282463,-0.080,-0.850
2282464,-0.080,-0.855
2282465,-0.075,-0.830
2282466,-0.070,-0.830
2282467,-0.055,-0.850
2282468,-0.050,-0.870
2282469,-0.050,-0.850
2282470,-0.015,-0.865
2282471,-0.025,-0.880
2282472,-0.045,-0.915
2282473,-0.020,-0.925
2282474,-0.015,-0.920
2282475,-0.005,-0.910
2282476,-0.025,-0.890
2282477,0.000,-0.910
2282478,-0.015,-0.885
2282479,0.000,-0.865
2282480,0.000,-0.870
2282481,-0.005,-0.895
2282482,0.010,-0.875
2282483,0.010,-0.885
2282484,0.010,-0.890
2282485,0.015,-0.915
2282486,0.005,-0.910
2282487,0.000,-0.910
2282488,0.005,-0.910
2282489,-0.010,-0.895
2282490,-0.005,-0.870
2282491,0.000,-0.865
2282492,-0.015,-0.880
2282493,-0.025,-0.870
2282494,-0.055,-0.885
2282495,-0.055,-0.885
2282496,-0.060,-0.860
2282497,-0.105,-0.865
2282498,-0.095,-0.890
2282499,-0.115,-0.885
2282500,-0.100,-0.845
2282501,-0.125,-0.860
2282502,-0.150,-0.850
2282503,-0.130,-0.830
2282504,-0.160,-0.840
2282505,-0.145,-0.825
2282506,-0.140,-0.825
2282507,-0.150,-0.825
2282508,-0.160,-0.850
2282509,-0.145,-0.880
2282510,-0.130,-0.870
2282511,-0.135,-0.880
2282512,-0.140,-0.855
2282513,-0.175,-0.835
2282514,-0.165,-0.820
2282515,-0.135,-0.820
2282516,-0.140,-0.785
2282517,-0.085,-0.775
2282518,-0.040,-0.780
2282519,-0.040,-0.750
2282520,-0.045,-0.770
2282521,0.000,-0.800
2282522,0.000,-0.810
2282523,0.010,-0.810
2282524,0.005,-0.825
2282525,0.035,-0.820
2282526,0.010,-0.805
2282527,0.005,-0.810
2282528,-0.015,-0.795
2282529,0.000,-0.770
2282530,0.005,-0.775
2282531,0.020,-0.790
2282532,0.020,-0.785
2282533,0.010,-0.770
2282534,0.020,-0.775
2282535,0.000,-0.770
2282536,0.025,-0.785
2282537,0.000,-0.800
2282538,-0.050,-0.800
2282539,-0.065,-0.780
2282540,-0.080,-0.780
2282541,-0.105,-0.790
2282542,-0.125,-0.815
2282543,-0.125,-0.790
2282544,-0.125,-0.790
2282545,-0.115,-0.790
2282546,-0.120,-0.820
2282547,-0.110,-0.825
2282548,-0.145,-0.835
2282549,-0.110,-0.820
2282550,-0.100,-0.835
2282551,-0.130,-0.825
2282552,-0.125,-0.815
2282553,-0.105,-0.775
2282554,-0.075,-0.800
2282555,-0.085,-0.795
2282556,-0.070,-0.795
2282557,-0.050,-0.800
2282558,-0.040,-0.780
2282559,-0.040,-0.780
2282560,-0.050,-0.770
2282561,-0.040,-0.765
2282562,-0.020,-0.795
2282563,-0.025,-0.785
2282564,-0.020,-0.770
2282565,-0.005,-0.775
2282566,0.000,-0.760
2282567,-0.015,-0.750
2282568,0.000,-0.735
2282569,0.040,-0.720
2282570,0.055,-0.725
2282571,0.045,-0.735
2282572,0.055,-0.720
2282573,0.055,-0.720
2282574,0.065,-0.710
2282575,0.095,-0.730
2282576,0.075,-0.700
2282577,0.060,-0.695
2282578,0.070,-0.700
2282579,0.055,-0.705
2282580,0.025,-0.710
2282581,0.030,-0.725
2282582,0.035,-0.725
2282583,0.000,-0.750
2282584,0.005,-0.795
2282585,-0.030,-0.800
2282586,-0.040,-0.790
2282587,-0.050,-0.780
2282588,-0.080,-0.800
2282589,-0.110,-0.780
2282590,-0.085,-0.755
2282591,-0.070,-0.735
2282592,-0.070,-0.750
2282593,-0.045,-0.745
2282594,-0.045,-0.755
2282595,-0.025,-0.775
2282596,-0.040,-0.770
2282597,-0.035,-0.775
2282598,-0.015,-0.780
2282599,-0.005,-0.780
2282600,-0.005,-0.770
2282601,0.005,-0.775
2282602,0.015,-0.775
2282603,0.005,-0.745
2282604,0.005,-0.750
2282605,0.005,-0.770
2282606,0.005,-0.735
2282607,0.030,-0.730
2282608,0.020,-0.730
2282609,0.030,-0.750
2282610,0.045,-0.715
2282611,0.025,-0.695
2282612,0.060,-0.695
2282613,0.050,-0.675
2282614,0.045,-0.660
2282615,0.065,-0.635
2282616,0.065,-0.635
2282617,0.055,-0.600
2282618,0.070,-0.540
2282619,0.095,-0.410
2282620,0.095,-0.250
2282621,0.140,-0.065
2282622,0.215,0.270
2282623,0.250,0.555
2282624,0.120,0.760
2282625,-0.200,0.915
2282626,-0.720,1.080
2282627,-1.370,1.270
2282628,-1.935,1.405
2282629,-2.460,1.420
2282630,-2.785,1.385
2282631,-2.795,1.355
2282632,-2.675,1.265
2282633,-2.485,1.170
2282634,-2.335,1.065
2282635,-2.255,0.955
2282636,-2.090,0.885
2282637,-1.915,0.860
2282638,-1.805,0.875
2282639,-1.680,0.895
2282640,-1.510,0.880
2282641,-1.370,0.635
2282642,-1.255,0.160
2282643,-1.140,-0.350
2282644,-1.015,-0.675
2282645,-0.910,-0.900
2282646,-0.790,-1.010
2282647,-0.675,-1.000
2282648,-0.525,-1.000
2282649,-0.370,-0.980
2282650,-0.190,-0.995
2282651,-0.010,-0.970
2282652,0.165,-0.930
2282653,0.300,-0.910
2282654,0.395,-0.895
2282655,0.425,-0.900
2282656,0.460,-0.885
2282657,0.495,-0.860
2282658,0.535,-0.860
2282659,0.555,-0.875
2282660,0.580,-0.920
2282661,0.600,-0.945
2282662,0.615,-0.935
2282663,0.605,-0.920
2282664,0.615,-0.900
2282665,0.645,-0.880
2282666,0.645,-0.840
2282667,0.675,-0.845
2282668,0.695,-0.855
2282669,0.720,-0.880
2282670,0.720,-0.885
2282671,0.710,-0.905
2282672,0.740,-0.890
2282673,0.740,-0.885
2282674,0.715,-0.900
2282675,0.730,-0.870
2282676,0.725,-0.835
2282677,0.760,-0.845
2282678,0.815,-0.795
2282679,0.870,-0.770
2282680,0.900,-0.755
2282681,0.940,-0.770
2282682,0.985,-0.800
2282683,1.040,-0.790
2282684,1.060,-0.795
2282685,1.085,-0.780
2282686,1.120,-0.765
2282687,1.150,-0.755
2282688,1.160,-0.755
2282689,1.200,-0.740
2282690,1.195,-0.720
2282691,1.205,-0.715
2282692,1.200,-0.670
2282693,1.205,-0.640
2282694,1.185,-0.645
2282695,1.180,-0.610
2282696,1.175,-0.565
2282697,1.130,-0.535
2282698,1.085,-0.500
2282699,1.045,-0.475
2282700,0.990,-0.495
2282701,0.965,-0.505
2282702,0.890,-0.510
2282703,0.855,-0.495
2282704,0.780,-0.470
2282705,0.715,-0.445
2282706,0.660,-0.460
2282707,0.635,-0.470
2282708,0.575,-0.495
2282709,0.510,-0.520
2282710,0.455,-0.540
2282711,0.385,-0.585
2282712,0.290,-0.605
2282713,0.190,-0.615
2282714,0.120,-0.625
2282715,0.080,-0.635
2282716,0.065,-0.640
2282717,0.040,-0.645
2282718,0.050,-0.655
2282719,0.045,-0.640
2282720,0.050,-0.655
2282721,0.045,-0.660
2282722,0.035,-0.670
2282723,0.065,-0.640
2282724,0.080,-0.640
2282725,0.090,-0.655
2282726,0.085,-0.635
2282727,0.120,-0.635
2282728,0.125,-0.630
2282729,0.130,-0.610
2282730,0.150,-0.610
2282731,0.160,-0.605
2282732,0.205,-0.615
2282733,0.185,-0.595
2282734,0.185,-0.590
2282735,0.205,-0.590
2282736,0.245,-0.590
2282737,0.245,-0.615
2282738,0.255,-0.650
2282739,0.270,-0.685
2282740,0.260,-0.690
2282741,0.260,-0.685
2282742,0.225,-0.690
2282743,0.220,-0.675
2282744,0.215,-0.680
2282745,0.230,-0.710
2282746,0.185,-0.700
2282747,0.225,-0.685
2282748,0.210,-0.695
2282749,0.165,-0.690
2282750,0.195,-0.710
2282751,0.200,-0.705
2282752,0.165,-0.735
2282753,0.145,-0.740
2282754,0.095,-0.750
2282755,0.080,-0.730
2282756,0.040,-0.710
2282757,0.010,-0.715
2282758,0.015,-0.700
2282759,0.015,-0.705
2282760,0.030,-0.650
2282761,0.015,-0.535
2282762,0.035,-0.410
2282763,0.030,-0.210
2282764,0.100,0.065
2282765,0.195,0.355
2282766,0.200,0.540
2282767,-0.005,0.720
2282768,-0.395,0.900
2282769,-1.015,1.130
2282770,-1.640,1.315
2282771,-2.205,1.400
2282772,-2.610,1.390
2282773,-2.755,1.325
2282774,-2.660,1.225
2282775,-2.525,1.090
2282776,-2.365,1.005
2282777,-2.260,0.920
2282778,-2.175,0.805
2282779,-2.025,0.715
2282780,-1.845,0.680
2282781,-1.715,0.670
2282782,-1.550,0.650
2282783,-1.400,0.480
2282784,-1.230,0.130
2282785,-1.110,-0.275
2282786,-1.020,-0.550
2282787,-0.900,-0.690
2282788,-0.755,-0.750
2282789,-0.610,-0.680
2282790,-0.440,-0.575
2282791,-0.275,-0.470
2282792,-0.070,-0.325
2282793,0.085,-0.190
2282794,0.215,-0.135
2282795,0.355,-0.145
2282796,0.405,-0.165
2282797,0.425,-0.160
2282798,0.450,-0.115
2282799,0.420,-0.095
2282800,0.420,-0.075
2282801,0.460,-0.060
2282802,0.470,-0.030
2282803,0.515,-0.035
2282804,0.510,-0.040
2282805,0.525,-0.020
2282806,0.545,0.015
2282807,0.560,0.060
2282808,0.575,0.095
2282809,0.580,0.075
2282810,0.625,0.040
2282811,0.645,0.020
2282812,0.665,0.015
2282813,0.665,0.010
2282814,0.665,0.020
2282815,0.705,0.005
2282816,0.740,0.010
2282817,0.770,0.000
2282818,0.790,0.000
2282819,0.825,0.000
2282820,0.845,0.015
2282821,0.875,0.000
2282822,0.915,-0.030
2282823,0.940,-0.050
2282824,0.975,-0.045
2282825,1.000,-0.040
2282826,1.015,-0.060
2282827,1.040,-0.055
2282828,1.040,-0.020
2282829,1.070,-0.005
2282830,1.060,-0.005
2282831,1.070,0.030
2282832,1.045,0.075
2282833,1.035,0.115
2282834,1.025,0.160
2282835,0.990,0.175
2282836,0.950,0.210
2282837,0.940,0.245
2282838,0.875,0.250
2282839,0.795,0.245
2282840,0.745,0.245
2282841,0.680,0.270
2282842,0.575,0.270
2282843,0.475,0.260
2282844,0.425,0.300
2282845,0.365,0.325
2282846,0.325,0.315
2282847,0.295,0.255
2282848,0.280,0.230
2282849,0.260,0.200
2282850,0.215,0.170
2282851,0.190,0.175
2282852,0.150,0.155
2282853,0.110,0.155
2282854,0.125,0.160
2282855,0.105,0.130
2282856,0.125,0.105
2282857,0.095,0.095
2282858,0.105,0.115
2282859,0.095,0.085
2282860,0.100,0.055
2282861,0.115,0.040
2282862,0.105,0.010
2282863,0.085,0.020
2282864,0.085,0.000
2282865,0.110,0.005
2282866,0.115,0.015
2282867,0.120,0.010
2282868,0.115,0.005
2282869,0.090,0.015
2282870,0.105,0.040
2282871,0.070,0.040
2282872,0.080,0.040
2282873,0.125,0.040
2282874,0.130,0.050
2282875,0.105,0.065
2282876,0.105,0.095
2282877,0.115,0.090
2282878,0.100,0.125
2282879,0.090,0.140
2282880,0.100,0.150
2282881,0.085,0.190
2282882,0.070,0.200
2282883,0.080,0.215
2282884,0.095,0.235
2282885,0.085,0.250
2282886,0.085,0.195
2282887,0.075,0.145
2282888,0.065,0.115
2282889,0.075,0.120
2282890,0.040,0.145
2282891,0.025,0.140
2282892,0.065,0.150
2282893,0.090,0.150
2282894,0.075,0.155
2282895,0.080,0.165
2282896,0.090,0.145
2282897,0.095,0.150
2282898,0.130,0.155
2282899,0.120,0.175
2282900,0.120,0.150
2282901,0.120,0.115
2282902,0.105,0.140
2282903,0.115,0.125
2282904,0.100,0.135
2282905,0.110,0.145
2282906,0.110,0.155
2282907,0.120,0.160
2282908,0.090,0.145
2282909,0.090,0.135
2282910,0.095,0.130
2282911,0.105,0.145
2282912,0.115,0.120
2282913,0.115,0.095
2282914,0.110,0.070
2282915,0.105,0.080
2282916,0.090,0.070
2282917,0.060,0.070
2282918,0.045,0.075
2282919,0.005,0.075
2282920,0.000,0.080
2282921,0.000,0.070
2282922,-0.005,0.075
2282923,-0.010,0.065
2282924,-0.010,0.025
2282925,-0.010,0.020
2282926,-0.035,0.015
2282927,-0.030,0.030
2282928,-0.055,0.030
2282929,-0.075,0.040
2282930,-0.070,0.070
2282931,-0.060,0.100
2282932,-0.045,0.145
2282933,-0.040,0.285
2282934,-0.010,0.480
2282935,0.075,0.740
2282936,0.180,1.045
2282937,0.230,1.240
2282938,0.070,1.370
2282939,-0.275,1.570
2282940,-0.890,1.785
2282941,-1.575,1.930
2282942,-2.140,2.015
2282943,-2.655,2.005
2282944,-2.880,1.950
2282945,-2.855,1.935
2282946,-2.725,1.825
2282947,-2.575,1.760
2282948,-2.425,1.620
2282949,-2.300,1.475
2282950,-2.090,1.405
2282951,-1.895,1.400
2282952,-1.760,1.390
2282953,-1.640,1.370
2282954,-1.470,1.210
2282955,-1.335,0.825
2282956,-1.200,0.335
2282957,-1.120,-0.045
2282958,-1.010,-0.255
2282959,-0.870,-0.315
2282960,-0.700,-0.315
2282961,-0.530,-0.265
2282962,-0.345,-0.260
2282963,-0.140,-0.250
2282964,0.025,-0.250
2282965,0.205,-0.235
2282966,0.305,-0.210
2282967,0.355,-0.220
2282968,0.375,-0.220
2282969,0.410,-0.215
2282970,0.385,-0.210
2282971,0.350,-0.195
2282972,0.365,-0.180
2282973,0.390,-0.155
2282974,0.420,-0.175
2282975,0.465,-0.185
2282976,0.490,-0.180
2282977,0.535,-0.175
2282978,0.545,-0.160
2282979,0.570,-0.140
2282980,0.585,-0.130
2282981,0.620,-0.125
2282982,0.620,-0.120
2282983,0.630,-0.100
2282984,0.665,-0.070
2282985,0.690,-0.085
2282986,0.725,-0.095
2282987,0.775,-0.095
2282988,0.820,-0.090
2282989,0.855,-0.100
2282990,0.865,-0.080
2282991,0.890,-0.065
2282992,0.925,-0.035
2282993,0.955,-0.045
2282994,0.965,-0.050
2282995,1.005,-0.045
2282996,1.040,-0.020
2282997,1.050,-0.010
2282998,1.090,-0.010
2282999,1.100,0.010
2283000,1.115,0.005
2283001,1.110,-0.005
2283002,1.080,-0.010
2283003,1.060,0.005
2283004,1.025,0.050
2283005,0.970,0.070
2283006,0.940,0.070
2283007,0.865,0.090
2283008,0.860,0.115
2283009,0.815,0.140
2283010,0.745,0.135
2283011,0.685,0.140
2283012,0.650,0.125
2283013,0.580,0.140
2283014,0.475,0.100
2283015,0.420,0.070
2283016,0.320,0.040
2283017,0.250,0.025
2283018,0.175,-0.015
2283019,0.105,-0.020
2283020,0.055,-0.010
2283021,0.015,-0.005
2283022,-0.035,-0.025
2283023,-0.100,-0.030
2283024,-0.130,-0.070
2283025,-0.170,-0.050
2283026,-0.235,-0.060
2283027,-0.285,-0.065
2283028,-0.300,-0.040
2283029,-0.320,-0.045
2283030,-0.310,-0.040
2283031,-0.310,-0.025
2283032,-0.300,-0.030
2283033,-0.285,-0.010
2283034,-0.280,-0.025
2283035,-0.275,-0.020
2283036,-0.250,-0.025
2283037,-0.255,-0.045
2283038,-0.260,-0.055
2283039,-0.240,-0.105
2283040,-0.235,-0.130
2283041,-0.235,-0.145
2283042,-0.265,-0.100
2283043,-0.260,-0.150
2283044,-0.250,-0.150
2283045,-0.240,-0.150
2283046,-0.225,-0.150
2283047,-0.225,-0.120
2283048,-0.210,-0.145
2283049,-0.225,-0.150
2283050,-0.205,-0.155
2283051,-0.195,-0.175
2283052,-0.200,-0.190
2283053,-0.240,-0.190
2283054,-0.240,-0.200
2283055,-0.285,-0.175
2283056,-0.330,-0.180
2283057,-0.330,-0.160
2283058,-0.345,-0.145
2283059,-0.345,-0.140
2283060,-0.350,-0.145
2283061,-0.340,-0.160
2283062,-0.350,-0.160
2283063,-0.355,-0.140
2283064,-0.350,-0.170
2283065,-0.335,-0.155
2283066,-0.330,-0.160
2283067,-0.350,-0.130
2283068,-0.355,-0.100
2283069,-0.340,-0.085
2283070,-0.335,-0.075
2283071,-0.360,-0.050
2283072,-0.370,-0.085
2283073,-0.365,-0.075
2283074,-0.365,-0.050
2283075,-0.360,-0.055
2283076,-0.370,-0.075
2283077,-0.345,-0.105
2283078,-0.340,-0.125
2283079,-0.345,-0.120
2283080,-0.345,-0.090
2283081,-0.355,-0.095
2283082,-0.365,-0.070
2283083,-0.360,-0.075
2283084,-0.335,-0.070
2283085,-0.325,-0.100
2283086,-0.320,-0.120
2283087,-0.340,-0.180
2283088,-0.310,-0.425
2283089,-0.320,-0.670
2283090,-0.315,-0.735
2283091,-0.325,-0.765
2283092,-0.285,-0.755
2283093,-0.295,-0.755
2283094,-0.300,-0.750
2283095,-0.290,-0.725
2283096,-0.315,-0.740
2283097,-0.335,-0.745
2283098,-0.365,-0.740
2283099,-0.375,-0.745
2283100,-0.365,-0.735
2283101,-0.385,-0.745
2283102,-0.395,-0.745
2283103,-0.400,-0.725
2283104,-0.415,-0.650
2283105,-0.410,-0.460
2283106,-0.385,-0.180
2283107,-0.320,0.245
2283108,-0.225,0.635
2283109,-0.255,0.890
2283110,-0.545,1.135
2283111,-1.055,1.365
2283112,-1.770,1.540
2283113,-2.380,1.640
2283114,-2.815,1.605
2283115,-3.070,1.490
2283116,-3.065,1.325
2283117,-2.935,1.140
2283118,-2.770,0.995
2283119,-2.655,0.835
2283120,-2.535,0.690
2283121,-2.335,0.620
2283122,-2.155,0.600
2283123,-2.080,0.615
2283124,-1.935,0.625
2283125,-1.780,0.460
2283126,-1.630,0.045
2283127,-1.525,-0.410
2283128,-1.440,-0.760
2283129,-1.320,-0.970
2283130,-1.175,-1.085
2283131,-1.030,-1.095
2283132,-0.860,-1.090
2283133,-0.640,-1.065
2283134,-0.475,-1.055
2283135,-0.320,-1.020
2283136,-0.145,-1.000
2283137,-0.045,-1.025
2283138,0.045,-1.045
2283139,0.090,-1.070
2283140,0.090,-1.065
2283141,0.090,-1.025
2283142,0.055,-1.040
2283143,0.075,-1.025
2283144,0.090,-1.025
2283145,0.100,-1.000
2283146,0.105,-0.990
2283147,0.070,-1.000
