'sample interval','ECG1','ECG2'
'0.004 sec','mV','mV'
2367500,-2.230,0.450
2367501,-2.200,0.385
2367502,-2.110,0.425
2367503,-2.040,0.330
2367504,-1.940,0.290
2367505,-1.770,0.315
2367506,-1.630,0.395
2367507,-1.540,0.345
2367508,-1.420,0.135
2367509,-1.290,-0.095
2367510,-1.180,-0.340
2367511,-1.035,-0.640
2367512,-0.895,-0.825
2367513,-0.800,-0.920
2367514,-0.700,-0.950
2367515,-0.600,-0.920
2367516,-0.465,-0.880
2367517,-0.325,-0.910
2367518,-0.140,-0.985
2367519,-0.015,-0.960
2367520,0.170,-0.900
2367521,0.340,-0.920
2367522,0.490,-0.940
2367523,0.585,-0.925
2367524,0.645,-0.900
2367525,0.690,-0.890
2367526,0.695,-0.930
2367527,0.715,-0.975
2367528,0.705,-0.950
2367529,0.730,-0.950
2367530,0.710,-0.975
2367531,0.715,-0.985
2367532,0.730,-0.930
2367533,0.720,-0.860
2367534,0.710,-0.850
2367535,0.700,-0.955
2367536,0.695,-1.080
2367537,0.725,-1.095
2367538,0.730,-1.025
2367539,0.760,-0.995
2367540,0.805,-0.970
2367541,0.845,-0.940
2367542,0.875,-0.915
2367543,0.910,-0.905
2367544,0.945,-0.905
2367545,0.995,-0.870
2367546,0.995,-0.850
2367547,1.045,-0.825
2367548,1.095,-0.830
2367549,1.125,-0.865
2367550,1.180,-0.835
2367551,1.210,-0.825
2367552,1.215,-0.800
2367553,1.250,-0.800
2367554,1.260,-0.790
2367555,1.275,-0.765
2367556,1.335,-0.765
2367557,1.355,-0.780
2367558,1.365,-0.775
2367559,1.385,-0.755
2367560,1.365,-0.710
2367561,1.345,-0.720
2367562,1.335,-0.765
2367563,1.345,-0.755
2367564,1.295,-0.725
2367565,1.215,-0.700
2367566,1.170,-0.685
2367567,1.125,-0.655
2367568,1.045,-0.640
2367569,0.950,-0.640
2367570,0.870,-0.610
2367571,0.755,-0.545
2367572,0.690,-0.525
2367573,0.620,-0.575
2367574,0.560,-0.545
2367575,0.510,-0.390
2367576,0.485,-0.300
2367577,0.460,-0.555
2367578,0.425,-0.785
2367579,0.375,-0.845
2367580,0.320,-0.790
2367581,0.310,-0.730
2367582,0.310,-0.700
2367583,0.320,-0.670
2367584,0.325,-0.625
2367585,0.300,-0.650
2367586,0.300,-0.655
2367587,0.270,-0.665
2367588,0.285,-0.640
2367589,0.275,-0.615
2367590,0.270,-0.605
2367591,0.230,-0.595
2367592,0.255,-0.560
2367593,0.235,-0.555
2367594,0.255,-0.560
2367595,0.270,-0.615
2367596,0.275,-0.630
2367597,0.270,-0.605
2367598,0.285,-0.590
2367599,0.310,-0.560
2367600,0.315,-0.560
2367601,0.310,-0.555
2367602,0.325,-0.495
2367603,0.320,-0.300
2367604,0.305,-0.290
2367605,0.315,-0.600
2367606,0.320,-0.915
2367607,0.305,-0.990
2367608,0.290,-0.880
2367609,0.325,-0.815
2367610,0.325,-0.780
2367611,0.310,-0.750
2367612,0.315,-0.755
2367613,0.310,-0.810
2367614,0.315,-0.830
2367615,0.305,-0.795
2367616,0.300,-0.765
2367617,0.290,-0.760
2367618,0.280,-0.775
2367619,0.290,-0.795
2367620,0.280,-0.780
2367621,0.270,-0.835
2367622,0.245,-0.905
2367623,0.225,-0.905
2367624,0.195,-0.855
2367625,0.135,-0.740
2367626,0.065,-0.740
2367627,0.030,-0.820
2367628,0.000,-0.870
2367629,0.020,-0.835
2367630,0.030,-0.845
2367631,0.065,-0.865
2367632,0.090,-0.825
2367633,0.095,-0.850
2367634,0.105,-0.885
2367635,0.110,-0.885
2367636,0.095,-0.860
2367637,0.065,-0.830
2367638,0.080,-0.785
2367639,0.065,-0.765
2367640,0.080,-0.720
2367641,0.080,-0.670
2367642,0.070,-0.690
2367643,0.085,-0.865
2367644,0.085,-1.095
2367645,0.080,-1.110
2367646,0.055,-1.015
2367647,0.060,-0.940
2367648,0.090,-0.980
2367649,0.080,-1.035
2367650,0.080,-0.980
2367651,0.080,-0.900
2367652,0.105,-0.900
2367653,0.100,-0.910
2367654,0.100,-0.880
2367655,0.080,-0.800
2367656,0.080,-0.775
2367657,0.065,-0.870
2367658,0.085,-0.975
2367659,0.075,-0.985
2367660,0.095,-1.045
2367661,0.105,-1.135
2367662,0.095,-1.115
2367663,0.100,-1.015
2367664,0.100,-0.965
2367665,0.115,-0.975
2367666,0.120,-1.000
2367667,0.115,-1.085
2367668,0.130,-1.120
2367669,0.130,-1.125
2367670,0.145,-1.090
2367671,0.140,-1.040
2367672,0.185,-0.990
2367673,0.170,-0.940
2367674,0.180,-0.965
2367675,0.155,-0.940
2367676,0.155,-0.940
2367677,0.140,-1.005
2367678,0.140,-1.075
2367679,0.100,-1.100
2367680,0.075,-1.085
2367681,0.055,-1.030
2367682,0.055,-0.885
2367683,0.075,-0.705
2367684,0.065,-0.470
2367685,0.130,-0.190
2367686,0.175,0.040
2367687,0.115,0.150
2367688,-0.090,0.255
2367689,-0.475,0.405
2367690,-1.035,0.550
2367691,-1.620,0.625
2367692,-1.985,0.695
2367693,-2.240,0.825
2367694,-2.325,0.870
2367695,-2.285,0.595
2367696,-2.180,0.100
2367697,-2.065,-0.310
2367698,-2.000,-0.465
2367699,-1.920,-0.400
2367700,-1.700,-0.300
2367701,-1.580,-0.215
2367702,-1.505,-0.205
2367703,-1.410,-0.260
2367704,-1.265,-0.460
2367705,-1.125,-0.840
2367706,-1.010,-1.220
2367707,-0.925,-1.360
2367708,-0.815,-1.360
2367709,-0.655,-1.385
2367710,-0.525,-1.390
2367711,-0.385,-1.375
2367712,-0.195,-1.305
2367713,-0.065,-1.265
2367714,0.080,-1.220
2367715,0.230,-1.185
2367716,0.345,-1.290
2367717,0.405,-1.350
2367718,0.465,-1.320
2367719,0.490,-1.280
2367720,0.520,-1.250
2367721,0.540,-1.310
2367722,0.555,-1.320
2367723,0.550,-1.145
2367724,0.565,-1.040
2367725,0.590,-1.140
2367726,0.610,-1.320
2367727,0.570,-1.515
2367728,0.575,-1.530
2367729,0.575,-1.365
2367730,0.610,-1.250
2367731,0.660,-1.120
2367732,0.705,-1.060
2367733,0.710,-1.170
2367734,0.755,-1.285
2367735,0.790,-1.260
2367736,0.820,-1.210
2367737,0.850,-1.200
2367738,0.865,-1.160
2367739,0.870,-1.105
2367740,0.890,-1.075
2367741,0.940,-1.020
2367742,0.975,-0.960
2367743,1.035,-0.865
2367744,1.065,-0.835
2367745,1.095,-0.910
2367746,1.145,-0.965
2367747,1.175,-0.940
2367748,1.185,-1.000
2367749,1.230,-1.255
2367750,1.205,-1.365
2367751,1.200,-1.285
2367752,1.205,-1.230
2367753,1.210,-1.190
2367754,1.210,-1.135
2367755,1.200,-1.020
2367756,1.165,-0.860
2367757,1.125,-0.935
2367758,1.085,-1.190
2367759,1.045,-1.235
2367760,0.990,-1.100
2367761,0.905,-0.980
2367762,0.860,-0.865
2367763,0.770,-0.885
2367764,0.730,-0.995
2367765,0.660,-1.040
2367766,0.605,-1.015
2367767,0.565,-0.970
2367768,0.520,-0.950
2367769,0.475,-0.860
2367770,0.440,-0.680
2367771,0.410,-0.565
2367772,0.395,-0.715
2367773,0.370,-1.120
2367774,0.315,-1.340
2367775,0.285,-1.250
2367776,0.300,-1.100
2367777,0.290,-1.120
2367778,0.305,-1.130
2367779,0.315,-1.095
2367780,0.310,-1.050
2367781,0.320,-1.020
2367782,0.310,-0.965
2367783,0.315,-0.890
2367784,0.330,-0.940
2367785,0.320,-0.985
2367786,0.330,-1.030
2367787,0.345,-1.015
2367788,0.330,-0.980
2367789,0.325,-0.940
2367790,0.335,-0.955
2367791,0.295,-0.910
2367792,0.320,-0.890
2367793,0.305,-0.950
2367794,0.285,-1.190
2367795,0.280,-1.435
2367796,0.280,-1.395
2367797,0.255,-1.270
2367798,0.250,-1.205
2367799,0.245,-1.255
2367800,0.240,-1.220
2367801,0.230,-1.200
2367802,0.205,-1.180
2367803,0.215,-1.205
2367804,0.165,-1.195
2367805,0.175,-1.150
2367806,0.145,-1.120
2367807,0.135,-1.110
2367808,0.140,-1.075
2367809,0.160,-1.055
2367810,0.160,-1.055
2367811,0.180,-0.960
2367812,0.165,-0.950
2367813,0.140,-0.985
2367814,0.140,-0.925
2367815,0.180,-0.925
2367816,0.145,-0.945
2367817,0.200,-0.840
2367818,0.210,-0.825
2367819,0.195,-0.970
2367820,0.240,-1.100
2367821,0.260,-1.070
2367822,0.250,-0.960
2367823,0.240,-0.875
2367824,0.230,-0.860
2367825,0.260,-0.840
2367826,0.260,-0.810
2367827,0.260,-0.810
2367828,0.275,-0.770
2367829,0.265,-0.735
2367830,0.275,-0.790
2367831,0.270,-0.940
2367832,0.275,-0.935
2367833,0.250,-0.850
2367834,0.270,-0.825
2367835,0.255,-0.805
2367836,0.240,-0.790
2367837,0.240,-0.560
2367838,0.235,-0.390
2367839,0.245,-0.700
2367840,0.260,-1.060
2367841,0.250,-1.140
2367842,0.240,-1.000
2367843,0.240,-0.895
2367844,0.280,-0.850
2367845,0.260,-0.860
2367846,0.280,-0.855
2367847,0.275,-0.810
2367848,0.200,-0.715
2367849,0.155,-0.675
2367850,0.125,-0.735
2367851,0.120,-0.750
2367852,0.100,-0.715
2367853,0.090,-0.715
2367854,0.065,-0.725
2367855,0.135,-0.695
2367856,0.130,-0.680
2367857,0.135,-0.675
2367858,0.140,-0.715
2367859,0.150,-0.720
2367860,0.145,-0.710
2367861,0.130,-0.700
2367862,0.140,-0.645
2367863,0.155,-0.575
2367864,0.135,-0.610
2367865,0.170,-0.745
2367866,0.170,-0.780
2367867,0.160,-0.760
2367868,0.155,-0.770
2367869,0.160,-0.755
2367870,0.185,-0.705
2367871,0.185,-0.730
2367872,0.190,-0.715
2367873,0.195,-0.760
2367874,0.175,-0.730
2367875,0.185,-0.640
2367876,0.190,-0.620
2367877,0.200,-0.665
2367878,0.220,-0.720
2367879,0.230,-0.705
2367880,0.230,-0.630
2367881,0.215,-0.690
2367882,0.230,-0.765
2367883,0.230,-0.720
2367884,0.220,-0.625
2367885,0.215,-0.520
2367886,0.235,-0.330
2367887,0.250,-0.090
2367888,0.280,0.200
2367889,0.320,0.525
2367890,0.280,0.765
2367891,0.100,0.910
2367892,-0.250,1.070
2367893,-0.810,1.225
2367894,-1.420,1.355
2367895,-1.905,1.220
2367896,-2.220,1.080
2367897,-2.340,1.060
2367898,-2.290,0.940
2367899,-2.175,0.815
2367900,-2.070,0.750
2367901,-1.985,0.620
2367902,-1.920,0.520
2367903,-1.745,0.490
2367904,-1.610,0.490
2367905,-1.505,0.520
2367906,-1.395,0.425
2367907,-1.275,0.170
2367908,-1.180,-0.225
2367909,-1.090,-0.550
2367910,-0.995,-0.720
2367911,-0.860,-0.835
2367912,-0.750,-0.880
2367913,-0.630,-0.810
2367914,-0.480,-0.745
2367915,-0.320,-0.660
2367916,-0.160,-0.630
2367917,0.025,-0.580
2367918,0.190,-0.500
2367919,0.315,-0.445
2367920,0.410,-0.475
2367921,0.470,-0.520
2367922,0.525,-0.455
2367923,0.550,-0.355
2367924,0.580,-0.260
2367925,0.620,-0.220
2367926,0.670,-0.155
2367927,0.715,-0.070
2367928,0.765,-0.020
2367929,0.795,0.025
2367930,0.780,0.090
2367931,0.745,0.130
2367932,0.745,0.095
2367933,0.745,0.115
2367934,0.780,0.145
2367935,0.785,0.185
2367936,0.790,0.200
2367937,0.800,0.190
2367938,0.810,0.190
2367939,0.825,0.155
2367940,0.825,0.140
2367941,0.820,0.155
2367942,0.840,0.165
2367943,0.860,0.175
2367944,0.890,0.185
2367945,0.880,0.160
2367946,0.910,0.170
2367947,0.905,0.180
2367948,0.960,0.220
2367949,0.980,0.245
2367950,1.000,0.280
2367951,1.010,0.380
2367952,1.040,0.380
2367953,1.060,0.370
2367954,1.055,0.440
2367955,1.065,0.510
2367956,1.095,0.590
2367957,1.055,0.635
2367958,1.060,0.675
2367959,1.035,0.715
2367960,1.030,0.785
2367961,1.000,0.910
2367962,0.970,1.045
2367963,0.920,1.185
2367964,0.855,1.235
2367965,0.830,1.205
2367966,0.795,1.220
2367967,0.785,1.265
2367968,0.705,1.280
2367969,0.670,1.250
2367970,0.605,1.205
2367971,0.565,1.240
2367972,0.480,1.240
2367973,0.400,1.130
2367974,0.315,1.085
2367975,0.290,1.130
2367976,0.295,1.135
2367977,0.280,1.140
2367978,0.265,1.150
2367979,0.270,1.160
2367980,0.230,1.140
2367981,0.230,1.145
2367982,0.245,1.150
2367983,0.215,1.145
2367984,0.225,1.140
2367985,0.230,1.175
2367986,0.230,1.185
2367987,0.240,1.135
2367988,0.245,1.125
2367989,0.260,1.230
2367990,0.270,1.240
2367991,0.255,1.085
2367992,0.270,1.040
2367993,0.270,0.990
2367994,0.255,0.910
2367995,0.235,0.870
2367996,0.230,0.910
2367997,0.250,0.960
2367998,0.275,1.015
2367999,0.285,1.040
2368000,0.270,1.105
2368001,0.275,1.095
2368002,0.280,1.050
2368003,0.315,1.020
2368004,0.315,0.955
2368005,0.300,0.930
2368006,0.300,0.955
2368007,0.290,0.975
2368008,0.320,0.930
2368009,0.305,0.905
2368010,0.305,0.920
2368011,0.330,0.910
2368012,0.325,0.900
2368013,0.315,0.845
2368014,0.325,0.795
2368015,0.320,0.735
2368016,0.310,0.640
2368017,0.300,0.675
2368018,0.260,0.690
2368019,0.245,0.800
2368020,0.180,1.000
2368021,0.190,1.235
2368022,0.235,1.390
2368023,0.310,1.425
2368024,0.290,1.530
2368025,0.040,1.745
2368026,-0.400,1.935
2368027,-1.030,2.085
2368028,-1.660,2.115
2368029,-2.090,2.045
2368030,-2.340,2.000
2368031,-2.355,2.020
2368032,-2.280,2.010
2368033,-2.145,2.000
2368034,-2.015,1.960
2368035,-1.935,1.900
2368036,-1.825,1.845
2368037,-1.655,1.785
2368038,-1.515,1.750
2368039,-1.395,1.725
2368040,-1.295,1.580
2368041,-1.145,1.200
2368042,-1.010,0.810
2368043,-0.915,0.580
2368044,-0.820,0.465
2368045,-0.700,0.400
2368046,-0.540,0.395
2368047,-0.400,0.425
2368048,-0.240,0.405
2368049,-0.065,0.415
2368050,0.105,0.435
2368051,0.300,0.405
2368052,0.430,0.400
2368053,0.515,0.470
2368054,0.525,0.480
2368055,0.580,0.490
2368056,0.595,0.500
2368057,0.660,0.500
2368058,0.695,0.525
2368059,0.750,0.600
2368060,0.770,0.655
2368061,0.750,0.550
2368062,0.780,0.390
2368063,0.795,0.345
2368064,0.790,0.350
2368065,0.790,0.340
2368066,0.805,0.425
2368067,0.790,0.490
2368068,0.795,0.540
2368069,0.775,0.490
2368070,0.810,0.370
2368071,0.835,0.365
2368072,0.875,0.360
2368073,0.940,0.360
2368074,0.970,0.400
2368075,1.005,0.370
2368076,1.010,0.330
2368077,1.045,0.300
2368078,1.085,0.375
2368079,1.085,0.380
2368080,1.105,0.315
2368081,1.125,0.275
2368082,1.185,0.210
2368083,1.180,0.210
2368084,1.165,0.165
2368085,1.195,0.075
2368086,1.175,0.040
2368087,1.120,0.000
2368088,1.115,0.040
2368089,1.085,0.140
2368090,1.045,0.130
2368091,1.010,0.055
2368092,0.960,-0.010
2368093,0.880,-0.020
2368094,0.850,-0.045
2368095,0.805,-0.210
2368096,0.745,-0.330
2368097,0.690,-0.300
2368098,0.650,-0.195
2368099,0.590,-0.155
2368100,0.555,-0.270
2368101,0.510,-0.320
2368102,0.470,-0.400
2368103,0.430,-0.385
2368104,0.355,-0.330
2368105,0.325,-0.260
2368106,0.280,-0.210
2368107,0.235,-0.250
2368108,0.190,-0.360
2368109,0.170,-0.470
2368110,0.185,-0.515
2368111,0.155,-0.450
2368112,0.175,-0.460
2368113,0.175,-0.520
2368114,0.190,-0.545
2368115,0.170,-0.520
2368116,0.175,-0.530
2368117,0.210,-0.540
2368118,0.230,-0.440
2368119,0.215,-0.380
2368120,0.205,-0.520
2368121,0.205,-0.675
2368122,0.190,-0.665
2368123,0.180,-0.630
2368124,0.170,-0.740
2368125,0.160,-0.765
2368126,0.180,-0.625
2368127,0.190,-0.530
2368128,0.170,-0.640
2368129,0.170,-0.735
2368130,0.160,-0.710
2368131,0.165,-0.625
2368132,0.190,-0.615
2368133,0.190,-0.580
2368134,0.180,-0.505
2368135,0.190,-0.415
2368136,0.170,-0.490
2368137,0.160,-0.790
2368138,0.140,-0.980
2368139,0.155,-0.920
2368140,0.140,-0.775
2368141,0.145,-0.660
2368142,0.120,-0.545
2368143,0.130,-0.500
2368144,0.130,-0.640
2368145,0.115,-0.765
2368146,0.100,-0.660
2368147,0.085,-0.635
2368148,0.065,-0.735
2368149,0.050,-0.865
2368150,0.050,-0.850
2368151,0.050,-0.730
2368152,0.050,-0.620
2368153,0.075,-0.610
2368154,0.070,-0.650
2368155,0.090,-0.660
2368156,0.090,-0.595
2368157,0.075,-0.570
2368158,0.080,-0.580
2368159,0.085,-0.585
2368160,0.110,-0.590
2368161,0.110,-0.610
2368162,0.115,-0.690
2368163,0.105,-0.810
2368164,0.110,-0.760
2368165,0.100,-0.635
2368166,0.140,-0.630
2368167,0.145,-0.655
2368168,0.135,-0.575
2368169,0.125,-0.550
2368170,0.115,-0.635
2368171,0.145,-0.730
2368172,0.170,-0.760
2368173,0.165,-0.700
2368174,0.175,-0.595
2368175,0.150,-0.465
2368176,0.155,-0.355
2368177,0.150,-0.420
2368178,0.155,-0.640
2368179,0.155,-0.790
2368180,0.140,-0.710
2368181,0.125,-0.475
2368182,0.180,-0.315
2368183,0.180,-0.445
2368184,0.190,-0.745
2368185,0.175,-0.910
2368186,0.140,-0.825
2368187,0.155,-0.705
2368188,0.190,-0.640
2368189,0.170,-0.620
2368190,0.190,-0.530
2368191,0.155,-0.505
2368192,0.125,-0.555
2368193,0.095,-0.635
2368194,0.045,-0.560
2368195,0.010,-0.465
2368196,-0.020,-0.470
2368197,0.005,-0.370
2368198,0.060,-0.045
2368199,0.115,0.320
2368200,0.040,0.585
2368201,-0.260,0.710
2368202,-0.745,0.660
2368203,-1.385,0.575
2368204,-1.935,0.615
2368205,-2.310,0.725
2368206,-2.470,0.810
2368207,-2.460,0.800
2368208,-2.305,0.715
2368209,-2.120,0.550
2368210,-2.040,0.370
2368211,-1.965,0.340
2368212,-1.780,0.405
2368213,-1.610,0.415
2368214,-1.480,0.230
2368215,-1.355,0.065
2368216,-1.230,-0.055
2368217,-1.090,-0.175
2368218,-0.960,-0.495
2368219,-0.910,-0.960
2368220,-0.800,-1.180
2368221,-0.680,-1.045
2368222,-0.560,-0.865
2368223,-0.395,-0.855
2368224,-0.195,-0.930
2368225,-0.040,-0.905
2368226,0.125,-0.835
2368227,0.270,-0.810
2368228,0.400,-0.785
2368229,0.475,-0.735
2368230,0.520,-0.790
2368231,0.540,-0.925
2368232,0.555,-0.940
2368233,0.570,-0.845
2368234,0.605,-0.705
2368235,0.635,-0.760
2368236,0.645,-0.940
2368237,0.670,-0.970
2368238,0.680,-0.880
2368239,0.695,-0.650
2368240,0.730,-0.490
2368241,0.750,-0.625
2368242,0.780,-0.775
2368243,0.785,-0.545
2368244,0.805,-0.425
2368245,0.820,-0.750
2368246,0.855,-1.115
2368247,0.865,-1.040
2368248,0.850,-0.720
2368249,0.880,-0.560
2368250,0.915,-0.630
2368251,0.945,-0.740
2368252,1.010,-0.610
2368253,1.035,-0.425
2368254,1.050,-0.510
2368255,1.060,-0.760
2368256,1.060,-0.875
2368257,1.085,-0.710
2368258,1.085,-0.545
2368259,1.115,-0.505
2368260,1.120,-0.460
2368261,1.145,-0.340
2368262,1.170,-0.210
2368263,1.175,-0.400
2368264,1.160,-0.830
2368265,1.155,-0.930
2368266,1.145,-0.640
2368267,1.100,-0.395
2368268,1.080,-0.460
2368269,1.035,-0.595
2368270,0.980,-0.620
2368271,0.905,-0.605
2368272,0.845,-0.565
2368273,0.795,-0.440
2368274,0.735,-0.415
2368275,0.695,-0.500
2368276,0.620,-0.450
2368277,0.565,-0.305
2368278,0.510,-0.330
2368279,0.475,-0.585
2368280,0.435,-0.580
2368281,0.350,-0.135
2368282,0.300,0.175
2368283,0.270,-0.310
2368284,0.255,-0.915
2368285,0.210,-1.045
2368286,0.165,-0.830
2368287,0.160,-0.540
2368288,0.170,-0.400
2368289,0.155,-0.465
2368290,0.140,-0.520
2368291,0.140,-0.560
2368292,0.140,-0.610
2368293,0.130,-0.645
2368294,0.130,-0.655
2368295,0.175,-0.640
2368296,0.175,-0.525
2368297,0.145,-0.470
2368298,0.140,-0.515
2368299,0.145,-0.620
2368300,0.125,-0.590
2368301,0.075,-0.445
2368302,0.065,-0.445
2368303,0.045,-0.585
2368304,0.015,-0.735
2368305,0.005,-0.755
2368306,-0.005,-0.555
2368307,-0.005,-0.505
2368308,0.000,-0.665
2368309,0.000,-0.710
2368310,-0.030,-0.565
2368311,-0.030,-0.525
2368312,-0.020,-0.655
2368313,0.005,-0.730
2368314,0.020,-0.715
2368315,0.000,-0.645
2368316,0.035,-0.535
2368317,0.070,-0.335
2368318,0.065,-0.265
2368319,0.085,-0.520
2368320,0.085,-0.750
2368321,0.065,-0.720
2368322,0.060,-0.655
2368323,0.070,-0.610
2368324,0.100,-0.580
2368325,0.080,-0.525
2368326,0.055,-0.485
2368327,0.055,-0.450
2368328,0.055,-0.460
2368329,0.055,-0.450
2368330,0.045,-0.425
2368331,0.050,-0.400
2368332,0.090,-0.395
2368333,0.070,-0.380
2368334,0.070,-0.375
2368335,0.065,-0.355
2368336,0.095,-0.305
2368337,0.090,-0.305
2368338,0.090,-0.260
2368339,0.060,-0.345
2368340,0.055,-0.490
2368341,0.030,-0.570
2368342,0.005,-0.520
2368343,-0.010,-0.460
2368344,-0.035,-0.310
2368345,-0.040,-0.250
2368346,-0.060,-0.580
2368347,-0.080,-0.885
2368348,-0.100,-0.745
2368349,-0.115,-0.510
2368350,-0.155,-0.480
2368351,-0.140,-0.580
2368352,-0.160,-0.615
2368353,-0.195,-0.565
2368354,-0.205,-0.530
2368355,-0.205,-0.500
2368356,-0.165,-0.395
2368357,-0.130,-0.410
2368358,-0.120,-0.500
2368359,-0.100,-0.530
2368360,-0.125,-0.500
2368361,-0.095,-0.480
2368362,-0.125,-0.475
2368363,-0.100,-0.395
2368364,-0.120,-0.305
2368365,-0.130,-0.265
2368366,-0.110,-0.325
2368367,-0.125,-0.450
2368368,-0.110,-0.465
2368369,-0.095,-0.360
2368370,-0.080,-0.280
2368371,-0.080,-0.230
2368372,-0.095,-0.300
2368373,-0.055,-0.385
2368374,-0.055,-0.365
2368375,-0.040,-0.230
2368376,-0.055,0.025
2368377,-0.055,0.230
2368378,-0.035,0.340
2368379,0.015,0.475
2368380,0.090,0.575
2368381,0.045,0.640
2368382,-0.185,0.830
2368383,-0.520,1.030
2368384,-1.105,1.115
2368385,-1.745,1.130
2368386,-2.215,1.120
2368387,-2.575,1.100
2368388,-2.760,1.095
2368389,-2.710,1.025
2368390,-2.610,0.920
2368391,-2.440,0.820
2368392,-2.390,0.655
2368393,-2.290,0.520
2368394,-2.160,0.450
2368395,-2.015,0.395
2368396,-1.895,0.385
2368397,-1.810,0.310
2368398,-1.720,0.155
2368399,-1.585,-0.125
2368400,-1.470,-0.360
2368401,-1.355,-0.475
2368402,-1.265,-0.585
2368403,-1.150,-0.665
2368404,-0.985,-0.660
2368405,-0.840,-0.555
2368406,-0.665,-0.455
2368407,-0.495,-0.555
2368408,-0.335,-0.740
2368409,-0.185,-0.710
2368410,-0.045,-0.530
2368411,0.050,-0.480
2368412,0.140,-0.550
2368413,0.200,-0.590
2368414,0.285,-0.575
2368415,0.320,-0.540
2368416,0.350,-0.520
2368417,0.370,-0.505
2368418,0.380,-0.475
2368419,0.380,-0.425
2368420,0.435,-0.395
2368421,0.415,-0.370
2368422,0.425,-0.410
2368423,0.405,-0.515
2368424,0.410,-0.560
2368425,0.450,-0.490
2368426,0.465,-0.415
2368427,0.490,-0.250
2368428,0.505,-0.110
2368429,0.520,-0.065
2368430,0.570,-0.230
2368431,0.570,-0.445
2368432,0.605,-0.565
2368433,0.650,-0.550
2368434,0.655,-0.490
2368435,0.705,-0.395
2368436,0.720,-0.340
2368437,0.720,-0.355
2368438,0.715,-0.340
2368439,0.730,-0.335
2368440,0.725,-0.290
2368441,0.755,-0.295
2368442,0.730,-0.310
2368443,0.745,-0.270
2368444,0.760,-0.255
2368445,0.760,-0.260
2368446,0.745,-0.260
2368447,0.695,-0.240
2368448,0.675,-0.190
2368449,0.695,-0.130
2368450,0.675,-0.100
2368451,0.635,-0.100
2368452,0.600,0.000
2368453,0.560,-0.010
2368454,0.520,-0.135
2368455,0.460,-0.215
2368456,0.430,-0.150
2368457,0.410,-0.080
2368458,0.350,-0.105
2368459,0.320,-0.160
2368460,0.255,-0.180
2368461,0.210,-0.165
2368462,0.150,-0.165
2368463,0.150,-0.155
2368464,0.110,-0.125
2368465,0.080,-0.150
2368466,0.050,-0.210
2368467,0.015,-0.275
2368468,0.000,-0.265
2368469,-0.020,-0.195
2368470,-0.030,-0.170
2368471,-0.060,-0.190
2368472,-0.060,-0.190
2368473,-0.065,-0.120
2368474,-0.065,-0.080
2368475,-0.075,-0.170
2368476,-0.080,-0.330
2368477,-0.095,-0.275
2368478,-0.110,-0.160
2368479,-0.115,-0.160
2368480,-0.135,-0.240
2368481,-0.095,-0.270
2368482,-0.070,-0.270
2368483,-0.070,-0.215
2368484,-0.080,-0.195
2368485,-0.070,-0.185
2368486,-0.070,-0.150
2368487,-0.100,-0.040
2368488,-0.085,-0.080
2368489,-0.120,-0.295
2368490,-0.135,-0.345
2368491,-0.180,-0.270
2368492,-0.200,-0.260
2368493,-0.215,-0.325
2368494,-0.225,-0.360
2368495,-0.245,-0.320
2368496,-0.270,-0.260
2368497,-0.260,-0.215
2368498,-0.275,-0.170
2368499,-0.245,-0.160
2368500,-0.230,-0.080
2368501,-0.230,-0.065
2368502,-0.235,-0.160
2368503,-0.200,-0.205
2368504,-0.200,-0.150
2368505,-0.175,-0.110
2368506,-0.155,-0.065
2368507,-0.160,-0.040
2368508,-0.135,-0.015
2368509,-0.140,-0.055
2368510,-0.130,-0.060
2368511,-0.135,-0.095
2368512,-0.120,-0.065
2368513,-0.135,0.000
2368514,-0.110,0.065
2368515,-0.160,0.110
2368516,-0.150,0.190
2368517,-0.145,0.280
2368518,-0.115,0.275
2368519,-0.110,0.145
2368520,-0.100,-0.005
2368521,-0.075,-0.080
2368522,-0.090,-0.005
2368523,-0.090,0.095
2368524,-0.070,0.230
2368525,-0.085,0.415
2368526,-0.055,0.695
2368527,-0.015,1.040
2368528,0.025,1.315
2368529,0.055,1.510
2368530,-0.105,1.660
2368531,-0.385,1.780
2368532,-0.860,1.920
2368533,-1.455,2.055
2368534,-2.030,2.085
2368535,-2.445,1.995
2368536,-2.705,1.930
2368537,-2.800,1.845
2368538,-2.705,1.735
2368539,-2.555,1.605
2368540,-2.450,1.525
2368541,-2.365,1.390
2368542,-2.260,1.295
2368543,-2.115,1.315
2368544,-2.010,1.370
2368545,-1.890,1.445
2368546,-1.775,1.405
2368547,-1.690,1.200
2368548,-1.570,0.920
2368549,-1.465,0.710
2368550,-1.370,0.605
2368551,-1.275,0.580
2368552,-1.085,0.575
2368553,-0.935,0.680
2368554,-0.775,0.775
2368555,-0.605,0.785
2368556,-0.460,0.755
2368557,-0.285,0.730
2368558,-0.160,0.665
2368559,-0.015,0.685
2368560,0.095,0.740
2368561,0.130,0.800
2368562,0.185,0.855
2368563,0.270,0.890
2368564,0.275,0.900
2368565,0.300,0.910
2368566,0.330,0.925
2368567,0.345,0.925
2368568,0.350,0.940
2368569,0.350,0.960
2368570,0.355,0.970
2368571,0.365,1.005
2368572,0.375,1.010
2368573,0.350,1.025
2368574,0.325,1.040
2368575,0.380,1.095
2368576,0.395,1.125
2368577,0.390,1.105
2368578,0.400,1.125
2368579,0.420,1.165
2368580,0.430,1.225
2368581,0.460,1.220
2368582,0.475,1.185
2368583,0.460,1.220
2368584,0.495,1.260
2368585,0.505,1.290
2368586,0.535,1.250
2368587,0.515,1.270
2368588,0.510,1.270
2368589,0.545,1.310
2368590,0.540,1.365
2368591,0.570,1.420
2368592,0.620,1.470
2368593,0.665,1.535
2368594,0.650,1.555
2368595,0.695,1.565
2368596,0.690,1.620
2368597,0.675,1.685
2368598,0.655,1.770
2368599,0.635,1.765
2368600,0.630,1.720
2368601,0.595,1.760
2368602,0.580,1.830
2368603,0.545,1.860
2368604,0.530,1.880
2368605,0.475,1.875
2368606,0.425,1.870
2368607,0.360,1.865
2368608,0.335,1.890
2368609,0.275,1.885
2368610,0.225,1.860
2368611,0.170,1.835
2368612,0.115,1.725
2368613,0.085,1.695
2368614,0.020,1.710
2368615,-0.025,1.740
2368616,-0.030,1.700
2368617,-0.045,1.625
2368618,-0.060,1.575
2368619,-0.070,1.515
2368620,-0.075,1.530
2368621,-0.070,1.535
2368622,-0.085,1.540
2368623,-0.070,1.535
2368624,-0.115,1.490
2368625,-0.130,1.480
2368626,-0.140,1.485
2368627,-0.170,1.490
2368628,-0.200,1.535
2368629,-0.205,1.595
2368630,-0.210,1.610
2368631,-0.230,1.575
2368632,-0.230,1.550
2368633,-0.225,1.545
2368634,-0.225,1.550
2368635,-0.220,1.570
2368636,-0.245,1.570
2368637,-0.260,1.635
2368638,-0.275,1.740
2368639,-0.300,1.740
2368640,-0.280,1.585
2368641,-0.305,1.475
2368642,-0.300,1.460
2368643,-0.315,1.500
2368644,-0.315,1.455
2368645,-0.315,1.450
2368646,-0.295,1.470
2368647,-0.285,1.445
2368648,-0.280,1.430
2368649,-0.315,1.435
2368650,-0.300,1.425
2368651,-0.305,1.400
2368652,-0.310,1.355
2368653,-0.325,1.290
2368654,-0.320,1.320
2368655,-0.330,1.360
2368656,-0.325,1.455
2368657,-0.320,1.590
2368658,-0.315,1.795
2368659,-0.245,2.085
2368660,-0.195,2.320
2368661,-0.230,2.475
2368662,-0.420,2.560
2368663,-0.715,2.670
2368664,-1.245,2.760
2368665,-1.845,2.805
2368666,-2.420,2.790
2368667,-2.820,2.745
2368668,-2.975,2.725
2368669,-2.985,2.725
2368670,-2.870,2.630
2368671,-2.680,2.500
2368672,-2.565,2.380
2368673,-2.450,2.270
2368674,-2.275,2.200
2368675,-2.075,2.160
2368676,-1.940,2.115
2368677,-1.825,1.965
2368678,-1.715,1.610
2368679,-1.605,1.015
2368680,-1.515,0.430
2368681,-1.450,0.080
2368682,-1.365,-0.155
2368683,-1.285,-0.290
2368684,-1.150,-0.300
2368685,-1.030,-0.295
2368686,-0.865,-0.315
2368687,-0.730,-0.340
2368688,-0.585,-0.375
2368689,-0.410,-0.390
2368690,-0.225,-0.405
2368691,-0.105,-0.390
2368692,-0.030,-0.340
2368693,0.035,-0.255
2368694,0.065,-0.315
2368695,0.095,-0.475
2368696,0.140,-0.575
2368697,0.145,-0.560
2368698,0.195,-0.505
2368699,0.250,-0.465
2368700,0.285,-0.420
2368701,0.330,-0.390
2368702,0.335,-0.380
2368703,0.355,-0.375
2368704,0.390,-0.405
2368705,0.400,-0.435
2368706,0.420,-0.415
2368707,0.430,-0.375
2368708,0.430,-0.315
2368709,0.465,-0.200
2368710,0.485,-0.175
2368711,0.510,-0.270
2368712,0.545,-0.450
2368713,0.570,-0.595
2368714,0.590,-0.605
2368715,0.615,-0.560
2368716,0.670,-0.545
2368717,0.705,-0.500
2368718,0.740,-0.535
2368719,0.750,-0.545
2368720,0.770,-0.540
2368721,0.765,-0.580
2368722,0.770,-0.600
2368723,0.760,-0.610
2368724,0.735,-0.575
2368725,0.705,-0.525
2368726,0.670,-0.525
2368727,0.640,-0.540
2368728,0.590,-0.525
2368729,0.540,-0.550
2368730,0.495,-0.520
2368731,0.450,-0.480
2368732,0.425,-0.445
2368733,0.390,-0.425
2368734,0.330,-0.520
2368735,0.275,-0.520
2368736,0.220,-0.350
2368737,0.155,-0.270
2368738,0.145,-0.430
2368739,0.090,-0.630
2368740,0.050,-0.720
2368741,0.010,-0.710
2368742,-0.020,-0.660
2368743,-0.050,-0.610
2368744,-0.050,-0.590
2368745,-0.080,-0.560
2368746,-0.080,-0.520
2368747,-0.110,-0.505
2368748,-0.135,-0.485
2368749,-0.155,-0.485
2368750,-0.135,-0.475
2368751,-0.120,-0.455
2368752,-0.120,-0.445
2368753,-0.135,-0.435
2368754,-0.115,-0.430
2368755,-0.080,-0.415
2368756,-0.085,-0.440
2368757,-0.080,-0.440
2368758,-0.090,-0.460
2368759,-0.110,-0.440
2368760,-0.120,-0.440
2368761,-0.135,-0.450
2368762,-0.150,-0.475
2368763,-0.165,-0.515
2368764,-0.165,-0.575
2368765,-0.170,-0.660
2368766,-0.220,-0.680
2368767,-0.240,-0.700
2368768,-0.250,-0.690
2368769,-0.240,-0.700
2368770,-0.270,-0.630
2368771,-0.270,-0.640
2368772,-0.275,-0.745
2368773,-0.270,-0.895
2368774,-0.290,-0.985
2368775,-0.280,-0.960
2368776,-0.265,-0.935
2368777,-0.265,-0.910
2368778,-0.255,-0.970
2368779,-0.245,-1.085
2368780,-0.240,-1.140
2368781,-0.240,-1.140
2368782,-0.250,-1.190
2368783,-0.290,-1.210
2368784,-0.265,-1.175
2368785,-0.260,-1.125
2368786,-0.240,-1.120
2368787,-0.235,-1.125
2368788,-0.240,-1.135
2368789,-0.200,-1.125
2368790,-0.215,-1.130
2368791,-0.190,-1.140
2368792,-0.190,-1.150
2368793,-0.220,-1.120
2368794,-0.225,-1.120
2368795,-0.225,-1.140
2368796,-0.240,-1.160
2368797,-0.245,-1.190
2368798,-0.250,-1.135
2368799,-0.275,-1.080
2368800,-0.270,-1.110
2368801,-0.285,-1.210
2368802,-0.285,-1.320
2368803,-0.320,-1.360
2368804,-0.320,-1.425
2368805,-0.320,-1.430
2368806,-0.305,-1.370
2368807,-0.320,-1.325
2368808,-0.275,-1.295
2368809,-0.255,-1.290
2368810,-0.260,-1.260
2368811,-0.245,-1.250
2368812,-0.250,-1.250
2368813,-0.265,-1.265
2368814,-0.280,-1.300
2368815,-0.270,-1.310
2368816,-0.295,-1.300
2368817,-0.295,-1.250
2368818,-0.305,-1.245
2368819,-0.335,-1.215
2368820,-0.320,-1.220
2368821,-0.300,-1.290
2368822,-0.285,-1.285
2368823,-0.300,-1.260
2368824,-0.245,-1.215
2368825,-0.250,-1.190
2368826,-0.255,-1.140
2368827,-0.250,-1.125
2368828,-0.245,-1.140
2368829,-0.265,-1.135
2368830,-0.265,-1.150
2368831,-0.245,-1.185
2368832,-0.265,-1.145
2368833,-0.265,-1.075
2368834,-0.280,-1.080
2368835,-0.295,-1.125
2368836,-0.265,-1.010
2368837,-0.240,-0.775
2368838,-0.140,-0.535
2368839,-0.115,-0.390
2368840,-0.255,-0.160
2368841,-0.630,0.100
2368842,-1.280,0.310
2368843,-1.935,0.410
2368844,-2.465,0.450
2368845,-2.770,0.430
2368846,-2.880,0.395
2368847,-2.805,0.330
2368848,-2.670,0.290
2368849,-2.525,0.175
2368850,-2.430,0.015
2368851,-2.320,-0.115
2368852,-2.180,-0.155
2368853,-2.040,-0.165
2368854,-1.985,-0.195
2368855,-1.880,-0.280
2368856,-1.765,-0.510
2368857,-1.590,-0.860
2368858,-1.465,-1.140
2368859,-1.350,-1.385
2368860,-1.260,-1.510
2368861,-1.150,-1.565
2368862,-0.965,-1.555
2368863,-0.815,-1.560
2368864,-0.660,-1.535
2368865,-0.465,-1.525
2368866,-0.320,-1.465
2368867,-0.145,-1.465
2368868,-0.045,-1.500
2368869,0.070,-1.530
2368870,0.115,-1.515
2368871,0.145,-1.525
2368872,0.170,-1.535
2368873,0.205,-1.530
2368874,0.210,-1.490
2368875,0.250,-1.520
2368876,0.270,-1.495
2368877,0.280,-1.490
2368878,0.300,-1.485
2368879,0.335,-1.475
2368880,0.350,-1.465
2368881,0.380,-1.455
2368882,0.380,-1.425
2368883,0.410,-1.420
2368884,0.455,-1.405
2368885,0.460,-1.395
2368886,0.520,-1.385
2368887,0.535,-1.410
2368888,0.560,-1.455
2368889,0.600,-1.450
2368890,0.590,-1.405
2368891,0.625,-1.370
2368892,0.670,-1.370
2368893,0.720,-1.390
2368894,0.755,-1.400
2368895,0.785,-1.400
2368896,0.815,-1.405
2368897,0.865,-1.420
2368898,0.865,-1.415
2368899,0.870,-1.405
2368900,0.855,-1.440
2368901,0.855,-1.430
2368902,0.835,-1.420
2368903,0.820,-1.440
2368904,0.770,-1.420
2368905,0.705,-1.490
2368906,0.690,-1.500
2368907,0.645,-1.490
2368908,0.630,-1.480
2368909,0.565,-1.460
2368910,0.515,-1.470
2368911,0.465,-1.435
2368912,0.420,-1.425
2368913,0.395,-1.415
2368914,0.340,-1.410
2368915,0.295,-1.390
2368916,0.245,-1.375
2368917,0.195,-1.350
2368918,0.150,-1.320
2368919,0.115,-1.320
2368920,0.090,-1.355
2368921,0.045,-1.365
2368922,0.035,-1.395
2368923,0.015,-1.395
2368924,-0.030,-1.400
2368925,-0.050,-1.390
2368926,-0.080,-1.395
2368927,-0.075,-1.365
2368928,-0.080,-1.380
2368929,-0.100,-1.405
2368930,-0.070,-1.400
2368931,-0.070,-1.415
2368932,-0.040,-1.420
2368933,-0.045,-1.425
2368934,-0.070,-1.450
2368935,-0.070,-1.470
2368936,-0.060,-1.475
2368937,-0.065,-1.470
2368938,-0.095,-1.470
2368939,-0.110,-1.475
2368940,-0.110,-1.485
2368941,-0.160,-1.495
2368942,-0.165,-1.510
2368943,-0.195,-1.510
2368944,-0.180,-1.515
2368945,-0.215,-1.505
2368946,-0.250,-1.505
2368947,-0.250,-1.495
2368948,-0.240,-1.515
2368949,-0.260,-1.495
2368950,-0.250,-1.490
2368951,-0.225,-1.490
2368952,-0.230,-1.480
2368953,-0.205,-1.470
2368954,-0.215,-1.455
2368955,-0.220,-1.435
2368956,-0.165,-1.425
2368957,-0.170,-1.465
2368958,-0.180,-1.440
2368959,-0.175,-1.410
2368960,-0.170,-1.430
2368961,-0.155,-1.410
2368962,-0.145,-1.390
2368963,-0.145,-1.385
2368964,-0.125,-1.385
2368965,-0.100,-1.410
2368966,-0.075,-1.380
2368967,-0.070,-1.360
2368968,-0.060,-1.390
2368969,-0.070,-1.385
2368970,-0.075,-1.385
2368971,-0.060,-1.380
2368972,-0.065,-1.395
2368973,-0.060,-1.435
2368974,-0.085,-1.430
2368975,-0.065,-1.425
2368976,-0.070,-1.440
2368977,-0.050,-1.455
2368978,-0.075,-1.480
2368979,-0.060,-1.475
2368980,-0.050,-1.490
2368981,-0.070,-1.520
2368982,-0.070,-1.530
2368983,-0.055,-1.525
2368984,-0.045,-1.510
2368985,-0.045,-1.520
2368986,-0.045,-1.525
2368987,-0.055,-1.525
2368988,-0.020,-1.520
2368989,-0.035,-1.555
2368990,-0.050,-1.580
2368991,-0.075,-1.540
2368992,-0.115,-1.575
2368993,-0.150,-1.595
2368994,-0.180,-1.570
2368995,-0.200,-1.525
2368996,-0.250,-1.525
2368997,-0.255,-1.520
2368998,-0.240,-1.510
2368999,-0.195,-1.500
2369000,-0.190,-1.510
2369001,-0.185,-1.515
2369002,-0.175,-1.515
2369003,-0.160,-1.480
2369004,-0.175,-1.475
2369005,-0.155,-1.480
2369006,-0.135,-1.495
2369007,-0.115,-1.510
2369008,-0.075,-1.505
2369009,-0.065,-1.530
2369010,-0.025,-1.530
2369011,0.010,-1.515
2369012,0.135,-1.520
2369013,0.205,-1.525
2369014,0.275,-1.530
2369015,0.315,-1.530
2369016,0.360,-1.495
2369017,0.410,-1.440
2369018,0.415,-1.300
2369019,0.460,-1.135
2369020,0.510,-0.890
2369021,0.595,-0.765
2369022,0.655,-0.670
2369023,0.490,-0.540
2369024,0.135,-0.345
2369025,-0.460,-0.145
2369026,-1.165,-0.070
2369027,-1.775,-0.090
2369028,-2.200,-0.160
2369029,-2.300,-0.225
2369030,-2.175,-0.270
2369031,-1.995,-0.310
2369032,-1.830,-0.405
2369033,-1.680,-0.530
2369034,-1.540,-0.605
2369035,-1.340,-0.655
2369036,-1.155,-0.705
2369037,-1.060,-0.725
2369038,-0.895,-0.840
2369039,-0.740,-1.085
2369040,-0.625,-1.405
2369041,-0.520,-1.615
2369042,-0.420,-1.745
2369043,-0.315,-1.815
2369044,-0.180,-1.820
2369045,-0.025,-1.795
2369046,0.120,-1.790
2369047,0.310,-1.795
2369048,0.455,-1.765
2369049,0.635,-1.745
2369050,0.800,-1.745
2369051,0.885,-1.730
2369052,0.935,-1.725
2369053,0.985,-1.725
2369054,1.010,-1.690
2369055,1.030,-1.710
2369056,1.060,-1.705
2369057,1.065,-1.675
2369058,1.125,-1.660
2369059,1.150,-1.670
2369060,1.170,-1.660
2369061,1.215,-1.635
2369062,1.235,-1.615
2369063,1.265,-1.620
2369064,1.280,-1.625
2369065,1.315,-1.610
2369066,1.320,-1.620
2369067,1.355,-1.610
2369068,1.375,-1.560
2369069,1.385,-1.520
2369070,1.395,-1.510
2369071,1.465,-1.505
2369072,1.530,-1.480
2369073,1.580,-1.475
2369074,1.625,-1.460
2369075,1.695,-1.475
2369076,1.700,-1.490
2369077,1.730,-1.475
2369078,1.765,-1.460
2369079,1.810,-1.490
2369080,1.815,-1.515
2369081,1.820,-1.490
2369082,1.790,-1.490
2369083,1.775,-1.520
2369084,1.765,-1.535
2369085,1.725,-1.635
2369086,1.710,-1.735
2369087,1.665,-1.795
2369088,1.615,-1.785
2369089,1.580,-1.775
2369090,1.540,-1.760
2369091,1.465,-1.780
2369092,1.435,-1.765
2369093,1.400,-1.755
2369094,1.355,-1.725
2369095,1.310,-1.755
2369096,1.250,-1.740
2369097,1.230,-1.760
2369098,1.175,-1.740
2369099,1.120,-1.775
2369100,1.090,-1.800
2369101,1.055,-1.790
2369102,1.030,-1.795
2369103,1.015,-1.850
2369104,1.000,-1.835
2369105,0.955,-1.815
2369106,0.910,-1.795
2369107,0.895,-1.805
2369108,0.880,-1.780
2369109,0.860,-1.780
2369110,0.880,-1.790
2369111,0.905,-1.805
2369112,0.900,-1.805
2369113,0.910,-1.780
2369114,0.920,-1.770
2369115,0.910,-1.780
2369116,0.910,-1.795
2369117,0.930,-1.755
2369118,0.940,-1.770
2369119,0.950,-1.795
2369120,0.955,-1.780
2369121,0.955,-1.780
2369122,0.915,-1.775
2369123,0.870,-1.780
2369124,0.845,-1.810
2369125,0.830,-1.795
2369126,0.860,-1.790
2369127,0.830,-1.815
2369128,0.820,-1.810
2369129,0.805,-1.825
2369130,0.790,-1.830
2369131,0.770,-1.810
2369132,0.775,-1.810
2369133,0.775,-1.820
2369134,0.765,-1.785
2369135,0.785,-1.775
2369136,0.775,-1.785
2369137,0.785,-1.735
2369138,0.805,-1.725
2369139,0.800,-1.735
2369140,0.805,-1.735
2369141,0.805,-1.750
2369142,0.795,-1.720
2369143,0.815,-1.695
2369144,0.785,-1.675
2369145,0.800,-1.650
2369146,0.795,-1.605
2369147,0.815,-1.600
2369148,0.835,-1.580
2369149,0.835,-1.600
2369150,0.850,-1.585
2369151,0.850,-1.580
2369152,0.850,-1.590
2369153,0.865,-1.590
2369154,0.870,-1.585
2369155,0.860,-1.600
2369156,0.865,-1.610
2369157,0.870,-1.620
2369158,0.865,-1.605
2369159,0.870,-1.625
2369160,0.855,-1.600
2369161,0.820,-1.605
2369162,0.785,-1.620
2369163,0.745,-1.660
2369164,0.770,-1.660
2369165,0.770,-1.660
2369166,0.720,-1.675
2369167,0.725,-1.695
2369168,0.710,-1.695
2369169,0.705,-1.705
2369170,0.720,-1.735
2369171,0.685,-1.760
2369172,0.685,-1.740
2369173,0.720,-1.750
2369174,0.710,-1.780
2369175,0.710,-1.820
2369176,0.695,-1.825
2369177,0.720,-1.855
2369178,0.735,-1.835
2369179,0.710,-1.805
2369180,0.720,-1.830
2369181,0.720,-1.840
2369182,0.725,-1.820
2369183,0.705,-1.825
2369184,0.750,-1.800
2369185,0.765,-1.785
2369186,0.765,-1.830
2369187,0.775,-1.820
2369188,0.780,-1.840
2369189,0.790,-1.845
2369190,0.805,-1.865
2369191,0.825,-1.870
2369192,0.805,-1.885
2369193,0.810,-1.890
2369194,0.815,-1.915
2369195,0.785,-1.920
2369196,0.795,-1.920
2369197,0.795,-1.935
2369198,0.765,-1.955
2369199,0.750,-1.950
2369200,0.750,-1.935
2369201,0.720,-1.940
2369202,0.715,-1.955
2369203,0.710,-1.950
2369204,0.710,-1.920
2369205,0.705,-1.940
2369206,0.720,-1.945
2369207,0.700,-1.950
2369208,0.700,-1.930
2369209,0.695,-1.940
2369210,0.710,-1.950
2369211,0.695,-1.960
2369212,0.705,-1.950
2369213,0.705,-1.955
2369214,0.700,-1.950
2369215,0.670,-1.910
2369216,0.680,-1.905
2369217,0.675,-1.905
2369218,0.675,-1.930
2369219,0.705,-1.905
2369220,0.715,-1.900
2369221,0.725,-1.930
2369222,0.710,-1.915
2369223,0.735,-1.940
2369224,0.745,-1.940
2369225,0.735,-1.925
2369226,0.735,-1.940
2369227,0.735,-1.925
2369228,0.760,-1.955
2369229,0.750,-1.935
2369230,0.745,-1.965
2369231,0.720,-1.960
2369232,0.715,-1.915
2369233,0.690,-1.920
2369234,0.665,-1.935
2369235,0.650,-1.920
2369236,0.635,-1.865
2369237,0.635,-1.780
2369238,0.635,-1.650
2369239,0.630,-1.455
2369240,0.690,-1.185
2369241,0.765,-0.985
2369242,0.735,-0.855
2369243,0.515,-0.775
2369244,0.110,-0.640
2369245,-0.475,-0.520
2369246,-1.165,-0.495
2369247,-1.720,-0.525
2369248,-2.160,-0.550
2369249,-2.300,-0.635
2369250,-2.195,-0.710
2369251,-2.015,-0.775
2369252,-1.830,-0.870
2369253,-1.680,-0.990
2369254,-1.560,-1.100
2369255,-1.365,-1.145
2369256,-1.210,-1.175
2369257,-1.070,-1.190
2369258,-0.975,-1.255
2369259,-0.860,-1.480
2369260,-0.750,-1.770
2369261,-0.640,-1.965
2369262,-0.525,-2.070
2369263,-0.365,-2.160
2369264,-0.200,-2.160
2369265,-0.070,-2.100
2369266,0.115,-2.050
2369267,0.260,-2.045
2369268,0.445,-2.020
2369269,0.610,-1.995
2369270,0.765,-2.015
2369271,0.890,-2.000
2369272,0.920,-1.980
2369273,0.985,-1.970
2369274,1.015,-1.935
2369275,1.020,-1.905
2369276,1.020,-1.930
2369277,1.045,-1.900
2369278,1.085,-1.880
2369279,1.100,-1.870
2369280,1.090,-1.850
2369281,1.130,-1.830
2369282,1.140,-1.815
2369283,1.125,-1.795
2369284,1.165,-1.795
2369285,1.155,-1.800
2369286,1.175,-1.750
2369287,1.180,-1.705
2369288,1.180,-1.705
2369289,1.210,-1.685
2369290,1.240,-1.660
2369291,1.275,-1.650
2369292,1.325,-1.650
2369293,1.340,-1.625
2369294,1.375,-1.635
2369295,1.405,-1.630
2369296,1.430,-1.635
2369297,1.475,-1.650
2369298,1.515,-1.640
2369299,1.525,-1.655
2369300,1.530,-1.665
2369301,1.570,-1.660
2369302,1.565,-1.660
2369303,1.590,-1.650
2369304,1.615,-1.655
2369305,1.635,-1.660
2369306,1.635,-1.605
2369307,1.630,-1.620
2369308,1.585,-1.620
2369309,1.605,-1.615
2369310,1.570,-1.600
2369311,1.555,-1.590
2369312,1.490,-1.575
2369313,1.430,-1.535
2369314,1.405,-1.505
2369315,1.350,-1.495
2369316,1.295,-1.470
2369317,1.250,-1.465
2369318,1.185,-1.470
2369319,1.160,-1.470
2369320,1.085,-1.465
2369321,1.055,-1.495
2369322,0.990,-1.485
2369323,0.985,-1.485
2369324,0.940,-1.505
2369325,0.905,-1.500
2369326,0.860,-1.490
2369327,0.845,-1.500
2369328,0.790,-1.480
2369329,0.800,-1.505
2369330,0.775,-1.525
2369331,0.765,-1.520
2369332,0.775,-1.530
2369333,0.775,-1.535
2369334,0.750,-1.550
2369335,0.745,-1.570
2369336,0.760,-1.580
2369337,0.745,-1.615
2369338,0.740,-1.625
2369339,0.725,-1.645
2369340,0.700,-1.630
2369341,0.680,-1.635
2369342,0.650,-1.620
2369343,0.635,-1.650
2369344,0.630,-1.635
2369345,0.625,-1.625
2369346,0.630,-1.640
2369347,0.640,-1.640
2369348,0.630,-1.650
2369349,0.620,-1.635
2369350,0.660,-1.610
2369351,0.640,-1.625
2369352,0.635,-1.620
2369353,0.615,-1.610
2369354,0.615,-1.630
2369355,0.585,-1.630
2369356,0.590,-1.635
2369357,0.585,-1.600
2369358,0.570,-1.560
2369359,0.565,-1.560
2369360,0.560,-1.540
2369361,0.580,-1.520
2369362,0.615,-1.530
2369363,0.620,-1.535
2369364,0.630,-1.555
2369365,0.625,-1.525
2369366,0.615,-1.515
2369367,0.615,-1.515
2369368,0.640,-1.525
2369369,0.630,-1.535
2369370,0.635,-1.525
2369371,0.630,-1.505
2369372,0.650,-1.510
2369373,0.620,-1.535
2369374,0.660,-1.525
2369375,0.660,-1.505
2369376,0.640,-1.525
2369377,0.650,-1.530
2369378,0.635,-1.520
2369379,0.600,-1.520
2369380,0.590,-1.520
2369381,0.575,-1.480
2369382,0.535,-1.410
2369383,0.500,-1.270
2369384,0.525,-1.065
2369385,0.545,-0.810
2369386,0.560,-0.570
2369387,0.580,-0.430
2369388,0.475,-0.375
2369389,0.180,-0.325
2369390,-0.265,-0.220
2369391,-0.840,-0.150
2369392,-1.380,-0.150
2369393,-1.840,-0.215
2369394,-2.125,-0.320
2369395,-2.180,-0.405
2369396,-2.060,-0.495
2369397,-1.890,-0.590
2369398,-1.785,-0.695
2369399,-1.705,-0.790
2369400,-1.615,-0.850
2369401,-1.480,-0.865
2369402,-1.375,-0.880
2369403,-1.265,-0.910
2369404,-1.175,-0.950
2369405,-1.055,-1.160
2369406,-0.980,-1.440
2369407,-0.885,-1.670
2369408,-0.765,-1.785
2369409,-0.650,-1.785
2369410,-0.490,-1.745
2369411,-0.350,-1.700
2369412,-0.190,-1.640
2369413,0.005,-1.590
2369414,0.185,-1.575
2369415,0.365,-1.575
2369416,0.500,-1.580
2369417,0.660,-1.560
2369418,0.715,-1.585
2369419,0.775,-1.585
2369420,0.795,-1.550
2369421,0.855,-1.570
2369422,0.850,-1.535
2369423,0.860,-1.530
2369424,0.880,-1.540
2369425,0.910,-1.490
2369426,0.925,-1.505
2369427,0.950,-1.480
2369428,0.955,-1.510
2369429,0.970,-1.525
2369430,0.995,-1.495
2369431,0.995,-1.460
2369432,1.005,-1.450
2369433,1.010,-1.465
2369434,1.030,-1.455
2369435,1.065,-1.430
2369436,1.085,-1.445
2369437,1.100,-1.435
2369438,1.115,-1.415
2369439,1.140,-1.395
2369440,1.175,-1.395
2369441,1.210,-1.415
2369442,1.240,-1.395
2369443,1.255,-1.400
2369444,1.280,-1.390
2369445,1.320,-1.395
2369446,1.335,-1.415
2369447,1.335,-1.385
2369448,1.355,-1.385
2369449,1.345,-1.390
2369450,1.360,-1.385
2369451,1.360,-1.375
2369452,1.335,-1.355
2369453,1.340,-1.350
2369454,1.315,-1.340
2369455,1.310,-1.325
2369456,1.300,-1.300
2369457,1.275,-1.280
2369458,1.240,-1.260
2369459,1.195,-1.240
2369460,1.110,-1.240
2369461,1.065,-1.220
2369462,1.015,-1.220
2369463,0.965,-1.190
2369464,0.925,-1.165
2369465,0.900,-1.155
2369466,0.865,-1.170
2369467,0.845,-1.200
2369468,0.830,-1.220
2369469,0.825,-1.245
2369470,0.785,-1.235
2369471,0.770,-1.240
2369472,0.715,-1.235
2369473,0.695,-1.245
2369474,0.700,-1.240
2369475,0.685,-1.225
2369476,0.690,-1.250
2369477,0.645,-1.240
2369478,0.655,-1.260
2369479,0.675,-1.255
2369480,0.655,-1.240
2369481,0.640,-1.240
2369482,0.645,-1.250
2369483,0.630,-1.220
2369484,0.645,-1.245
2369485,0.640,-1.230
2369486,0.620,-1.230
2369487,0.625,-1.225
2369488,0.620,-1.210
2369489,0.635,-1.220
2369490,0.660,-1.230
2369491,0.635,-1.205
2369492,0.615,-1.205
2369493,0.625,-1.215
2369494,0.630,-1.215
2369495,0.635,-1.205
2369496,0.625,-1.215
2369497,0.620,-1.200
2369498,0.630,-1.225
2369499,0.620,-1.240
2369500,0.600,-1.260
2369501,0.580,-1.275
2369502,0.550,-1.260
2369503,0.545,-1.235
2369504,0.495,-1.245
2369505,0.490,-1.210
2369506,0.450,-1.245
2369507,0.465,-1.220
2369508,0.455,-1.225
2369509,0.470,-1.220
2369510,0.465,-1.200
2369511,0.445,-1.220
2369512,0.455,-1.205
2369513,0.465,-1.190
2369514,0.500,-1.185
2369515,0.500,-1.175
2369516,0.515,-1.180
2369517,0.505,-1.175
2369518,0.495,-1.150
2369519,0.495,-1.160
2369520,0.495,-1.150
2369521,0.490,-1.130
2369522,0.490,-1.105
2369523,0.525,-1.075
2369524,0.535,-1.085
2369525,0.535,-1.090
2369526,0.520,-1.065
2369527,0.525,-1.055
2369528,0.550,-1.050
2369529,0.565,-1.060
2369530,0.565,-1.050
2369531,0.580,-1.000
2369532,0.565,-0.965
2369533,0.570,-0.865
2369534,0.560,-0.695
2369535,0.595,-0.480
2369536,0.660,-0.290
2369537,0.675,-0.150
2369538,0.555,-0.050
2369539,0.260,0.100
2369540,-0.165,0.255
2369541,-0.815,0.350
2369542,-1.380,0.350
2369543,-1.845,0.315
2369544,-2.135,0.260
2369545,-2.210,0.195
2369546,-2.120,0.100
2369547,-1.980,0.050
2369548,-1.835,-0.010
2369549,-1.750,-0.150
2369550,-1.650,-0.210
2369551,-1.530,-0.250
2369552,-1.400,-0.265
2369553,-1.310,-0.310
2369554,-1.180,-0.425
2369555,-1.085,-0.670
2369556,-0.950,-0.970
2369557,-0.810,-1.230
2369558,-0.710,-1.375
2369559,-0.610,-1.430
2369560,-0.515,-1.430
2369561,-0.360,-1.355
2369562,-0.205,-1.285
2369563,-0.020,-1.260
2369564,0.140,-1.255
2369565,0.320,-1.210
2369566,0.505,-1.225
2369567,0.615,-1.200
2369568,0.715,-1.215
2369569,0.780,-1.220
2369570,0.815,-1.195
2369571,0.845,-1.195
2369572,0.880,-1.200
2369573,0.885,-1.185
2369574,0.905,-1.190
2369575,0.935,-1.165
2369576,0.935,-1.155
2369577,0.970,-1.145
2369578,0.995,-1.115
2369579,1.015,-1.090
2369580,1.030,-1.095
2369581,1.060,-1.080
2369582,1.105,-1.045
2369583,1.115,-1.035
2369584,1.110,-1.025
2369585,1.145,-1.015
2369586,1.180,-1.025
2369587,1.200,-1.030
2369588,1.220,-1.045
2369589,1.205,-1.040
2369590,1.220,-1.025
2369591,1.210,-1.005
2369592,1.195,-0.970
2369593,1.200,-0.980
2369594,1.215,-0.980
2369595,1.260,-0.955
2369596,1.275,-0.970
2369597,1.330,-0.985
2369598,1.330,-0.980
2369599,1.330,-0.980
2369600,1.340,-0.980
2369601,1.345,-0.995
2369602,1.335,-0.980
2369603,1.350,-0.965
2369604,1.340,-0.965
2369605,1.295,-0.935
2369606,1.275,-0.940
2369607,1.235,-0.910
2369608,1.205,-0.880
2369609,1.165,-0.895
2369610,1.110,-0.895
2369611,1.080,-0.900
2369612,1.035,-0.875
2369613,0.990,-0.855
2369614,0.940,-0.865
2369615,0.910,-0.845
2369616,0.880,-0.840
2369617,0.815,-0.835
2369618,0.765,-0.840
2369619,0.755,-0.850
2369620,0.720,-0.825
2369621,0.695,-0.815
2369622,0.655,-0.820
2369623,0.625,-0.820
2369624,0.620,-0.810
2369625,0.620,-0.790
2369626,0.615,-0.775
2369627,0.595,-0.755
2369628,0.620,-0.750
2369629,0.580,-0.750
2369630,0.595,-0.745
2369631,0.595,-0.750
2369632,0.585,-0.715
2369633,0.590,-0.720
2369634,0.590,-0.730
2369635,0.570,-0.750
2369636,0.545,-0.800
2369637,0.530,-0.820
2369638,0.515,-0.825
2369639,0.525,-0.835
2369640,0.475,-0.850
2369641,0.470,-0.885
2369642,0.450,-0.870
2369643,0.415,-0.870
2369644,0.380,-0.900
2369645,0.385,-0.910
2369646,0.370,-0.945
2369647,0.390,-0.950
2369648,0.360,-0.965
2369649,0.365,-0.975
2369650,0.380,-0.960
2369651,0.370,-0.975
2369652,0.335,-0.955
2369653,0.365,-0.940
2369654,0.355,-0.960
2369655,0.340,-0.975
2369656,0.315,-0.945
2369657,0.325,-0.925
2369658,0.340,-0.940
2369659,0.350,-0.920
2369660,0.340,-0.915
2369661,0.340,-0.935
2369662,0.330,-0.945
2369663,0.340,-0.915
2369664,0.325,-0.900
2369665,0.320,-0.870
2369666,0.325,-0.865
2369667,0.325,-0.840
2369668,0.310,-0.840
2369669,0.360,-0.805
2369670,0.375,-0.795
2369671,0.360,-0.805
2369672,0.360,-0.780
2369673,0.360,-0.770
2369674,0.370,-0.765
2369675,0.355,-0.765
2369676,0.390,-0.765
2369677,0.375,-0.740
2369678,0.390,-0.735
2369679,0.390,-0.750
2369680,0.390,-0.740
2369681,0.385,-0.735
2369682,0.385,-0.725
2369683,0.405,-0.710
2369684,0.390,-0.715
2369685,0.410,-0.695
2369686,0.400,-0.685
2369687,0.410,-0.685
2369688,0.450,-0.700
2369689,0.445,-0.690
2369690,0.470,-0.710
2369691,0.450,-0.710
2369692,0.430,-0.725
2369693,0.410,-0.740
2369694,0.395,-0.740
2369695,0.360,-0.735
2369696,0.360,-0.735
2369697,0.345,-0.730
2369698,0.325,-0.675
2369699,0.300,-0.590
2369700,0.295,-0.450
2369701,0.315,-0.230
2369702,0.365,-0.005
2369703,0.390,0.130
2369704,0.290,0.265
2369705,0.035,0.445
2369706,-0.440,0.630
2369707,-1.035,0.760
2369708,-1.580,0.790
2369709,-2.030,0.745
2369710,-2.300,0.700
2369711,-2.325,0.650
2369712,-2.205,0.595
2369713,-2.035,0.510
2369714,-1.905,0.405
2369715,-1.795,0.295
2369716,-1.655,0.230
2369717,-1.500,0.140
2369718,-1.390,0.120
2369719,-1.300,0.045
2369720,-1.135,-0.115
2369721,-1.025,-0.400
2369722,-0.915,-0.740
2369723,-0.815,-0.940
2369724,-0.720,-1.020
2369725,-0.595,-1.080
2369726,-0.465,-1.060
2369727,-0.360,-1.050
2369728,-0.215,-1.000
2369729,-0.085,-0.975
2369730,0.075,-0.970
2369731,0.230,-0.960
2369732,0.350,-0.970
2369733,0.480,-0.945
2369734,0.555,-0.950
2369735,0.605,-0.975
2369736,0.615,-0.980
2369737,0.620,-0.945
2369738,0.635,-0.920
2369739,0.635,-0.915
2369740,0.620,-0.880
2369741,0.630,-0.850
2369742,0.645,-0.830
2369743,0.675,-0.835
2369744,0.680,-0.815
2369745,0.710,-0.790
2369746,0.715,-0.795
2369747,0.715,-0.795
2369748,0.740,-0.770
2369749,0.740,-0.735
2369750,0.745,-0.755
2369751,0.785,-0.755
2369752,0.810,-0.760
2369753,0.840,-0.755
2369754,0.870,-0.740
2369755,0.880,-0.740
2369756,0.910,-0.760
2369757,0.925,-0.725
2369758,0.935,-0.725
2369759,0.960,-0.725
2369760,0.990,-0.760
2369761,1.015,-0.720
2369762,1.015,-0.715
2369763,1.040,-0.710
2369764,1.035,-0.690
2369765,1.045,-0.675
2369766,1.065,-0.680
2369767,1.030,-0.645
2369768,1.060,-0.640
2369769,1.055,-0.655
2369770,1.015,-0.620
2369771,1.015,-0.620
2369772,1.000,-0.630
2369773,0.945,-0.625
2369774,0.930,-0.605
2369775,0.865,-0.580
2369776,0.815,-0.555
2369777,0.785,-0.550
2369778,0.765,-0.555
2369779,0.715,-0.530
2369780,0.675,-0.555
2369781,0.635,-0.545
2369782,0.585,-0.570
2369783,0.530,-0.585
2369784,0.460,-0.585
2369785,0.410,-0.590
2369786,0.360,-0.605
2369787,0.310,-0.605
2369788,0.260,-0.595
2369789,0.255,-0.620
2369790,0.220,-0.620
2369791,0.215,-0.595
2369792,0.190,-0.585
2369793,0.200,-0.620
2369794,0.180,-0.605
2369795,0.205,-0.600
2369796,0.190,-0.595
2369797,0.185,-0.595
2369798,0.195,-0.615
2369799,0.205,-0.600
2369800,0.205,-0.615
2369801,0.200,-0.625
2369802,0.185,-0.645
2369803,0.175,-0.645
2369804,0.190,-0.635
2369805,0.170,-0.640
2369806,0.200,-0.655
2369807,0.170,-0.650
2369808,0.180,-0.635
2369809,0.185,-0.640
2369810,0.185,-0.640
2369811,0.210,-0.640
2369812,0.185,-0.610
2369813,0.190,-0.610
2369814,0.210,-0.620
2369815,0.200,-0.625
2369816,0.205,-0.650
2369817,0.205,-0.620
2369818,0.220,-0.620
2369819,0.200,-0.595
2369820,0.190,-0.605
2369821,0.205,-0.620
2369822,0.220,-0.610
2369823,0.230,-0.605
2369824,0.210,-0.595
2369825,0.185,-0.580
2369826,0.155,-0.580
2369827,0.130,-0.605
2369828,0.080,-0.590
2369829,0.045,-0.575
2369830,0.045,-0.560
2369831,0.045,-0.540
2369832,0.045,-0.505
2369833,0.030,-0.420
2369834,0.050,-0.280
2369835,0.050,-0.110
2369836,0.110,0.090
2369837,0.185,0.270
2369838,0.175,0.400
2369839,0.005,0.560
2369840,-0.340,0.755
2369841,-0.920,0.915
2369842,-1.495,0.990
2369843,-1.945,0.965
2369844,-2.255,0.915
2369845,-2.345,0.865
2369846,-2.235,0.815
2369847,-2.075,0.745
2369848,-1.920,0.605
2369849,-1.840,0.480
2369850,-1.720,0.400
2369851,-1.565,0.340
2369852,-1.460,0.290
2369853,-1.365,0.210
2369854,-1.220,0.025
2369855,-1.110,-0.265
2369856,-1.010,-0.570
2369857,-0.925,-0.740
2369858,-0.845,-0.815
2369859,-0.725,-0.850
2369860,-0.555,-0.820
2369861,-0.435,-0.790
2369862,-0.285,-0.735
2369863,-0.145,-0.725
2369864,-0.025,-0.715
2369865,0.130,-0.720
2369866,0.220,-0.715
2369867,0.295,-0.715
2369868,0.340,-0.715
2369869,0.355,-0.715
2369870,0.355,-0.710
2369871,0.370,-0.700
2369872,0.360,-0.720
2369873,0.370,-0.715
2369874,0.380,-0.715
2369875,0.385,-0.695
2369876,0.385,-0.710
2369877,0.410,-0.735
2369878,0.400,-0.715
2369879,0.420,-0.705
2369880,0.420,-0.715
2369881,0.430,-0.700
2369882,0.455,-0.675
2369883,0.465,-0.675
2369884,0.500,-0.690
2369885,0.505,-0.685
2369886,0.545,-0.655
2369887,0.555,-0.600
2369888,0.575,-0.570
2369889,0.585,-0.555
2369890,0.625,-0.565
2369891,0.630,-0.570
2369892,0.680,-0.570
2369893,0.705,-0.550
2369894,0.710,-0.505
2369895,0.720,-0.430
2369896,0.740,-0.440
2369897,0.750,-0.420
2369898,0.770,-0.405
2369899,0.840,-0.360
2369900,0.855,-0.350
2369901,0.890,-0.385
2369902,0.850,-0.365
2369903,0.835,-0.370
2369904,0.840,-0.365
2369905,0.780,-0.350
2369906,0.715,-0.340
2369907,0.650,-0.345
2369908,0.595,-0.335
2369909,0.540,-0.355
2369910,0.480,-0.375
2369911,0.425,-0.385
2369912,0.355,-0.395
2369913,0.300,-0.425
2369914,0.260,-0.425
2369915,0.215,-0.460
2369916,0.175,-0.465
2369917,0.140,-0.475
2369918,0.105,-0.475
2369919,0.095,-0.485
2369920,0.095,-0.510
2369921,0.070,-0.510
2369922,0.035,-0.525
2369923,0.055,-0.515
2369924,0.040,-0.490
2369925,0.035,-0.480
2369926,0.030,-0.470
2369927,0.020,-0.480
2369928,0.035,-0.480
2369929,0.030,-0.490
2369930,0.030,-0.495
2369931,0.040,-0.480
2369932,0.000,-0.470
2369933,0.005,-0.440
2369934,0.010,-0.440
2369935,0.010,-0.430
2369936,0.005,-0.400
2369937,0.025,-0.415
2369938,0.050,-0.420
2369939,0.050,-0.425
2369940,0.045,-0.435
2369941,0.045,-0.425
2369942,0.045,-0.430
2369943,0.065,-0.450
2369944,0.040,-0.440
2369945,0.030,-0.450
2369946,0.040,-0.440
2369947,0.035,-0.460
2369948,0.050,-0.460
2369949,0.015,-0.450
2369950,-0.010,-0.440
2369951,-0.025,-0.475
2369952,-0.020,-0.490
2369953,-0.050,-0.515
2369954,-0.065,-0.540
2369955,-0.075,-0.530
2369956,-0.070,-0.505
2369957,-0.100,-0.500
2369958,-0.120,-0.510
2369959,-0.115,-0.520
2369960,-0.110,-0.495
2369961,-0.125,-0.480
2369962,-0.120,-0.450
2369963,-0.115,-0.455
2369964,-0.100,-0.480
2369965,-0.125,-0.505
2369966,-0.100,-0.510
2369967,-0.095,-0.480
2369968,-0.120,-0.445
2369969,-0.125,-0.425
2369970,-0.120,-0.390
2369971,-0.140,-0.395
2369972,-0.120,-0.390
2369973,-0.095,-0.370
2369974,-0.110,-0.365
2369975,-0.090,-0.370
2369976,-0.080,-0.360
2369977,-0.095,-0.360
2369978,-0.080,-0.360
2369979,-0.080,-0.385
2369980,-0.075,-0.390
2369981,-0.100,-0.390
2369982,-0.085,-0.380
2369983,-0.075,-0.415
2369984,-0.055,-0.410
2369985,-0.085,-0.415
2369986,-0.070,-0.390
2369987,-0.085,-0.395
2369988,-0.085,-0.415
2369989,-0.080,-0.400
2369990,-0.115,-0.405
2369991,-0.135,-0.440
2369992,-0.145,-0.455
2369993,-0.115,-0.425
2369994,-0.125,-0.425
2369995,-0.145,-0.440
2369996,-0.155,-0.430
2369997,-0.160,-0.425
2369998,-0.185,-0.410
2369999,-0.185,-0.400
2370000,-0.215,-0.385
2370001,-0.190,-0.385
2370002,-0.190,-0.410
2370003,-0.170,-0.410
2370004,-0.170,-0.410
2370005,-0.150,-0.375
2370006,-0.185,-0.350
2370007,-0.190,-0.335
2370008,-0.190,-0.310
2370009,-0.180,-0.295
2370010,-0.150,-0.260
2370011,-0.135,-0.200
2370012,-0.115,-0.075
2370013,-0.115,0.105
2370014,-0.130,0.345
2370015,-0.060,0.605
2370016,0.010,0.800
2370017,-0.030,0.960
2370018,-0.285,1.120
2370019,-0.705,1.285
2370020,-1.280,1.405
2370021,-1.800,1.415
2370022,-2.210,1.375
2370023,-2.485,1.300
2370024,-2.500,1.225
2370025,-2.350,1.125
2370026,-2.155,1.035
2370027,-2.040,0.850
2370028,-1.955,0.655
2370029,-1.855,0.545
2370030,-1.695,0.480
2370031,-1.625,0.400
2370032,-1.585,0.345
2370033,-1.490,0.115
2370034,-1.385,-0.225
2370035,-1.300,-0.550
2370036,-1.245,-0.760
2370037,-1.145,-0.795
2370038,-1.025,-0.745
2370039,-0.900,-0.685
2370040,-0.780,-0.680
2370041,-0.625,-0.660
2370042,-0.460,-0.630
2370043,-0.290,-0.565
2370044,-0.180,-0.510
2370045,-0.075,-0.490
2370046,-0.030,-0.500
2370047,0.030,-0.465
2370048,0.075,-0.460
2370049,0.080,-0.435
2370050,0.110,-0.435
2370051,0.145,-0.405
2370052,0.185,-0.395
2370053,0.180,-0.385
2370054,0.165,-0.365
2370055,0.215,-0.360
2370056,0.215,-0.345
2370057,0.225,-0.350
2370058,0.250,-0.365
2370059,0.275,-0.355
2370060,0.280,-0.340
2370061,0.305,-0.320
2370062,0.310,-0.310
2370063,0.310,-0.310
2370064,0.350,-0.310
2370065,0.385,-0.305
2370066,0.415,-0.275
2370067,0.405,-0.275
2370068,0.435,-0.255
2370069,0.480,-0.250
2370070,0.500,-0.260
2370071,0.540,-0.285
2370072,0.565,-0.315
2370073,0.530,-0.280
2370074,0.565,-0.285
2370075,0.535,-0.275
2370076,0.530,-0.240
2370077,0.525,-0.245
2370078,0.525,-0.230
2370079,0.525,-0.215
2370080,0.540,-0.185
2370081,0.495,-0.150
2370082,0.470,-0.140
2370083,0.460,-0.105
2370084,0.430,-0.075
2370085,0.405,-0.030
2370086,0.395,-0.010
2370087,0.385,0.015
2370088,0.330,0.030
2370089,0.295,0.030
2370090,0.250,0.040
2370091,0.230,0.025
2370092,0.195,0.035
2370093,0.160,0.015
2370094,0.115,-0.030
2370095,0.080,-0.060
2370096,0.075,-0.090
2370097,0.030,-0.095
2370098,-0.005,-0.115
2370099,-0.020,-0.125
2370100,-0.045,-0.120
2370101,-0.080,-0.155
2370102,-0.070,-0.185
2370103,-0.090,-0.175
2370104,-0.090,-0.225
2370105,-0.090,-0.255
2370106,-0.100,-0.275
2370107,-0.095,-0.270
2370108,-0.100,-0.280
2370109,-0.115,-0.290
2370110,-0.140,-0.290
2370111,-0.160,-0.255
2370112,-0.175,-0.250
2370113,-0.200,-0.275
2370114,-0.200,-0.290
2370115,-0.205,-0.285
2370116,-0.215,-0.245
2370117,-0.235,-0.220
2370118,-0.235,-0.240
2370119,-0.275,-0.250
2370120,-0.260,-0.240
2370121,-0.255,-0.250
2370122,-0.235,-0.260
2370123,-0.220,-0.250
2370124,-0.240,-0.235
2370125,-0.220,-0.255
2370126,-0.260,-0.255
2370127,-0.230,-0.240
2370128,-0.235,-0.225
2370129,-0.220,-0.245
2370130,-0.220,-0.260
2370131,-0.210,-0.260
2370132,-0.235,-0.250
2370133,-0.220,-0.225
2370134,-0.250,-0.255
2370135,-0.240,-0.275
2370136,-0.235,-0.275
2370137,-0.240,-0.250
2370138,-0.220,-0.255
2370139,-0.255,-0.275
2370140,-0.260,-0.295
2370141,-0.235,-0.265
2370142,-0.205,-0.275
2370143,-0.200,-0.285
2370144,-0.200,-0.280
2370145,-0.195,-0.265
2370146,-0.215,-0.235
2370147,-0.185,-0.260
2370148,-0.210,-0.245
2370149,-0.175,-0.250
2370150,-0.175,-0.250
2370151,-0.190,-0.255
2370152,-0.225,-0.225
2370153,-0.240,-0.195
2370154,-0.270,-0.155
2370155,-0.275,-0.145
2370156,-0.280,-0.150
2370157,-0.275,-0.125
2370158,-0.255,-0.110
2370159,-0.270,-0.115
2370160,-0.265,-0.125
2370161,-0.285,-0.115
2370162,-0.270,-0.090
2370163,-0.275,-0.110
2370164,-0.270,-0.135
2370165,-0.260,-0.135
2370166,-0.260,-0.120
2370167,-0.280,-0.155
2370168,-0.275,-0.150
2370169,-0.245,-0.180
2370170,-0.270,-0.175
2370171,-0.270,-0.170
2370172,-0.290,-0.170
2370173,-0.305,-0.165
2370174,-0.290,-0.140
2370175,-0.270,-0.125
2370176,-0.265,-0.135
2370177,-0.290,-0.140
2370178,-0.270,-0.140
2370179,-0.250,-0.130
2370180,-0.245,-0.130
2370181,-0.250,-0.110
2370182,-0.245,-0.115
2370183,-0.245,-0.110
2370184,-0.255,-0.145
2370185,-0.230,-0.150
2370186,-0.215,-0.160
2370187,-0.220,-0.135
2370188,-0.230,-0.090
2370189,-0.235,0.025
2370190,-0.215,0.195
2370191,-0.240,0.485
2370192,-0.255,0.815
2370193,-0.225,1.200
2370194,-0.170,1.445
2370195,-0.265,1.595
2370196,-0.565,1.705
2370197,-0.995,1.850
2370198,-1.570,1.930
2370199,-2.070,1.850
2370200,-2.495,1.745
2370201,-2.710,1.635
2370202,-2.665,1.510
2370203,-2.515,1.380
2370204,-2.340,1.240
2370205,-2.235,1.080
2370206,-2.125,0.970
2370207,-1.975,0.915
2370208,-1.890,0.860
2370209,-1.780,0.845
2370210,-1.655,0.735
2370211,-1.605,0.440
2370212,-1.500,0.000
2370213,-1.380,-0.275
2370214,-1.305,-0.440
2370215,-1.205,-0.490
2370216,-1.075,-0.445
2370217,-0.970,-0.420
2370218,-0.795,-0.395
2370219,-0.625,-0.385
2370220,-0.475,-0.380
2370221,-0.320,-0.355
2370222,-0.205,-0.325
2370223,-0.100,-0.295
2370224,-0.050,-0.285
2370225,0.005,-0.320
2370226,0.030,-0.315
2370227,0.060,-0.265
2370228,0.090,-0.235
2370229,0.095,-0.200
2370230,0.120,-0.210
2370231,0.120,-0.175
2370232,0.120,-0.140
2370233,0.125,-0.110
2370234,0.140,-0.095
2370235,0.135,-0.095
2370236,0.135,-0.085
2370237,0.140,-0.085
2370238,0.165,-0.075
2370239,0.175,-0.080
2370240,0.195,-0.055
2370241,0.200,-0.040
2370242,0.195,-0.050
2370243,0.215,-0.040
2370244,0.230,-0.040
2370245,0.265,-0.015
2370246,0.275,-0.020
2370247,0.310,-0.005
2370248,0.305,0.005
2370249,0.355,0.015
2370250,0.395,0.015
2370251,0.395,0.005
2370252,0.415,0.005
2370253,0.415,0.005
2370254,0.440,0.040
2370255,0.440,0.040
2370256,0.455,0.055
2370257,0.480,0.095
2370258,0.465,0.110
2370259,0.490,0.135
2370260,0.460,0.180
2370261,0.480,0.200
2370262,0.450,0.220
2370263,0.420,0.200
2370264,0.400,0.210
2370265,0.385,0.220
2370266,0.350,0.255
2370267,0.320,0.255
2370268,0.305,0.260
2370269,0.245,0.270
2370270,0.200,0.245
2370271,0.180,0.195
2370272,0.165,0.200
2370273,0.110,0.160
2370274,0.095,0.140
2370275,0.010,0.085
2370276,-0.025,0.060
2370277,-0.075,0.045
2370278,-0.095,0.035
2370279,-0.115,0.020
2370280,-0.140,0.000
2370281,-0.185,-0.015
2370282,-0.180,-0.030
2370283,-0.220,-0.040
2370284,-0.240,-0.055
2370285,-0.260,-0.055
2370286,-0.265,-0.055
2370287,-0.240,-0.045
2370288,-0.230,-0.060
2370289,-0.235,-0.070
2370290,-0.190,-0.060
2370291,-0.210,-0.075
2370292,-0.195,-0.095
2370293,-0.165,-0.095
2370294,-0.185,-0.095
2370295,-0.145,-0.080
2370296,-0.130,-0.105
2370297,-0.155,-0.085
2370298,-0.160,-0.060
2370299,-0.160,-0.065
2370300,-0.160,-0.090
2370301,-0.150,-0.115
2370302,-0.110,-0.115
2370303,-0.140,-0.100
2370304,-0.130,-0.060
2370305,-0.130,-0.045
2370306,-0.130,-0.030
2370307,-0.135,-0.015
2370308,-0.115,-0.015
2370309,-0.115,-0.030
2370310,-0.110,-0.025
2370311,-0.100,-0.040
2370312,-0.070,-0.030
2370313,-0.075,-0.030
2370314,-0.070,-0.030
2370315,-0.080,-0.040
2370316,-0.075,0.000
2370317,-0.085,-0.050
2370318,-0.120,-0.075
2370319,-0.140,-0.065
2370320,-0.130,-0.045
2370321,-0.170,-0.075
2370322,-0.195,-0.090
2370323,-0.220,-0.090
2370324,-0.230,-0.080
2370325,-0.250,-0.075
2370326,-0.270,-0.100
2370327,-0.250,-0.090
2370328,-0.260,-0.070
2370329,-0.245,-0.065
2370330,-0.245,-0.070
2370331,-0.250,-0.075
2370332,-0.240,-0.065
2370333,-0.265,-0.075
2370334,-0.230,-0.030
2370335,-0.225,-0.010
2370336,-0.210,0.015
2370337,-0.225,0.005
2370338,-0.230,0.000
2370339,-0.215,0.015
2370340,-0.200,0.045
2370341,-0.180,0.070
2370342,-0.175,0.105
2370343,-0.155,0.075
2370344,-0.165,0.095
2370345,-0.145,0.130
2370346,-0.140,0.110
2370347,-0.120,0.105
2370348,-0.110,0.090
2370349,-0.110,0.090
2370350,-0.110,0.080
2370351,-0.100,0.035
2370352,-0.115,0.055
2370353,-0.105,0.050
2370354,-0.120,0.020
2370355,-0.095,0.010
2370356,-0.130,0.020
2370357,-0.130,0.020
2370358,-0.180,0.020
2370359,-0.185,0.000
2370360,-0.180,-0.005
2370361,-0.220,-0.020
2370362,-0.220,-0.025
2370363,-0.265,-0.045
2370364,-0.235,-0.055
2370365,-0.275,-0.085
2370366,-0.265,-0.095
2370367,-0.285,-0.060
2370368,-0.300,-0.085
2370369,-0.300,-0.080
2370370,-0.310,-0.075
2370371,-0.310,-0.060
2370372,-0.290,-0.050
2370373,-0.280,-0.040
2370374,-0.280,-0.020
2370375,-0.265,-0.010
2370376,-0.255,-0.010
2370377,-0.260,-0.020
2370378,-0.260,-0.025
2370379,-0.265,-0.005
2370380,-0.270,0.030
2370381,-0.260,0.035
2370382,-0.275,0.035
2370383,-0.260,0.055
2370384,-0.240,0.070
2370385,-0.230,0.075
2370386,-0.235,0.095
2370387,-0.235,0.090
2370388,-0.205,0.110
2370389,-0.200,0.120
2370390,-0.200,0.125
2370391,-0.165,0.150
2370392,-0.180,0.165
2370393,-0.160,0.195
2370394,-0.175,0.290
2370395,-0.135,0.475
2370396,-0.155,0.715
2370397,-0.110,1.000
2370398,-0.090,1.210
2370399,-0.125,1.355
2370400,-0.345,1.480
2370401,-0.700,1.660
2370402,-1.220,1.845
2370403,-1.835,1.925
2370404,-2.340,1.915
2370405,-2.700,1.845
2370406,-2.860,1.780
2370407,-2.810,1.700
2370408,-2.650,1.610
2370409,-2.460,1.510
2370410,-2.335,1.385
2370411,-2.270,1.280
2370412,-2.105,1.205
2370413,-1.950,1.180
2370414,-1.845,1.110
2370415,-1.755,0.985
2370416,-1.645,0.685
2370417,-1.530,0.290
2370418,-1.420,-0.065
2370419,-1.345,-0.305
2370420,-1.265,-0.405
2370421,-1.135,-0.435
2370422,-0.990,-0.380
2370423,-0.840,-0.310
2370424,-0.720,-0.255
2370425,-0.530,-0.230
2370426,-0.360,-0.195
2370427,-0.220,-0.180
2370428,-0.040,-0.210
2370429,0.085,-0.210
2370430,0.130,-0.225
2370431,0.190,-0.200
2370432,0.215,-0.200
2370433,0.215,-0.220
2370434,0.245,-0.200
2370435,0.260,-0.210
2370436,0.270,-0.190
2370437,0.250,-0.200
2370438,0.295,-0.205
2370439,0.280,-0.175
2370440,0.265,-0.190
2370441,0.285,-0.170
2370442,0.320,-0.170
2370443,0.315,-0.170
2370444,0.330,-0.170
2370445,0.350,-0.170
2370446,0.345,-0.150
2370447,0.375,-0.115
2370448,0.405,-0.125
2370449,0.425,-0.100
2370450,0.425,-0.070
2370451,0.460,-0.080
2370452,0.480,-0.085
2370453,0.485,-0.100
2370454,0.515,-0.060
2370455,0.560,-0.055
2370456,0.580,-0.060
2370457,0.575,-0.055
2370458,0.615,-0.030
2370459,0.650,-0.040
2370460,0.680,-0.045
2370461,0.680,-0.030
2370462,0.705,-0.020
2370463,0.715,-0.005
2370464,0.725,0.000
2370465,0.760,0.000
2370466,0.725,0.000
2370467,0.750,0.030
2370468,0.740,0.030
2370469,0.705,0.025
2370470,0.680,0.030
2370471,0.650,0.035
2370472,0.615,0.075
2370473,0.580,0.070
2370474,0.530,0.105
2370475,0.500,0.100
2370476,0.445,0.095
2370477,0.440,0.090
2370478,0.390,0.080
2370479,0.340,0.095
2370480,0.320,0.085
2370481,0.270,0.040
2370482,0.240,0.030
2370483,0.215,0.020
2370484,0.180,0.010
2370485,0.125,0.010
2370486,0.070,0.010
2370487,0.015,0.025
2370488,-0.015,0.025
2370489,-0.035,0.020
2370490,-0.055,-0.005
2370491,-0.065,-0.015
2370492,-0.090,0.005
2370493,-0.105,0.015
2370494,-0.120,0.020
2370495,-0.145,0.045
2370496,-0.145,0.045
2370497,-0.130,0.045
2370498,-0.095,0.050
2370499,-0.095,0.065
2370500,-0.080,0.060
2370501,-0.080,0.065
2370502,-0.045,0.060
2370503,-0.030,0.065
2370504,-0.035,0.060
2370505,-0.005,0.060
2370506,0.005,0.045
2370507,0.005,0.030
2370508,0.010,0.015
2370509,-0.005,0.010
2370510,0.020,-0.015
2370511,0.000,-0.045
2370512,0.000,-0.035
2370513,0.000,-0.040
2370514,0.015,-0.015
2370515,0.015,-0.025
2370516,0.000,-0.035
2370517,0.010,-0.065
2370518,0.015,-0.060
2370519,0.035,-0.070
2370520,0.025,-0.070
2370521,0.035,-0.110
2370522,0.025,-0.095
2370523,0.035,-0.125
2370524,0.015,-0.075
2370525,0.010,-0.085
2370526,0.030,-0.060
2370527,0.010,-0.035
2370528,-0.020,-0.045
2370529,-0.040,-0.065
2370530,-0.050,-0.085
2370531,-0.045,-0.090
2370532,-0.070,-0.050
2370533,-0.085,-0.030
2370534,-0.115,-0.045
2370535,-0.125,-0.005
2370536,-0.145,0.000
2370537,-0.135,0.010
2370538,-0.110,0.005
2370539,-0.120,0.030
2370540,-0.100,0.030
2370541,-0.095,0.050
2370542,-0.080,0.040
2370543,-0.095,0.035
2370544,-0.070,0.035
2370545,-0.060,0.030
2370546,-0.085,0.015
2370547,-0.100,0.035
2370548,-0.090,0.010
2370549,-0.070,0.030
2370550,-0.060,0.030
2370551,-0.070,0.035
2370552,-0.040,0.045
2370553,-0.060,0.030
2370554,-0.055,0.010
2370555,-0.070,-0.015
2370556,-0.055,-0.005
2370557,-0.055,-0.005
2370558,-0.080,0.020
2370559,-0.080,0.000
2370560,-0.080,0.000
2370561,-0.050,0.000
2370562,-0.035,0.015
2370563,-0.035,0.015
2370564,-0.055,0.025
2370565,-0.045,0.045
2370566,-0.015,0.060
2370567,-0.025,0.045
2370568,-0.005,0.025
2370569,0.000,0.045
2370570,-0.005,0.055
2370571,-0.045,0.085
2370572,-0.070,0.105
2370573,-0.070,0.120
2370574,-0.075,0.115
2370575,-0.085,0.145
2370576,-0.095,0.175
2370577,-0.115,0.230
2370578,-0.120,0.315
2370579,-0.080,0.465
2370580,-0.085,0.650
2370581,-0.045,0.900
2370582,0.010,1.085
2370583,0.035,1.245
2370584,-0.140,1.385
2370585,-0.515,1.575
2370586,-1.105,1.740
2370587,-1.780,1.840
2370588,-2.310,1.835
2370589,-2.750,1.775
2370590,-2.955,1.710
2370591,-2.915,1.610
2370592,-2.745,1.550
2370593,-2.575,1.460
2370594,-2.425,1.295
2370595,-2.330,1.170
2370596,-2.140,1.075
2370597,-2.000,1.015
2370598,-1.850,0.920
2370599,-1.740,0.845
2370600,-1.620,0.650
2370601,-1.485,0.320
2370602,-1.350,0.045
2370603,-1.245,-0.145
2370604,-1.115,-0.220
2370605,-0.955,-0.240
2370606,-0.835,-0.215
2370607,-0.660,-0.210
2370608,-0.460,-0.220
2370609,-0.300,-0.210
2370610,-0.125,-0.185
2370611,0.015,-0.185
2370612,0.155,-0.170
2370613,0.230,-0.165
2370614,0.280,-0.135
2370615,0.310,-0.140
2370616,0.315,-0.125
2370617,0.360,-0.130
2370618,0.360,-0.125
2370619,0.415,-0.130
2370620,0.400,-0.125
2370621,0.415,-0.140
2370622,0.425,-0.130
2370623,0.420,-0.150
2370624,0.450,-0.160
2370625,0.435,-0.140
2370626,0.435,-0.140
2370627,0.435,-0.120
2370628,0.455,-0.115
2370629,0.465,-0.135
2370630,0.505,-0.170
2370631,0.515,-0.150
2370632,0.540,-0.135
2370633,0.570,-0.155
2370634,0.595,-0.150
2370635,0.590,-0.155
2370636,0.625,-0.130
2370637,0.650,-0.130
2370638,0.665,-0.100
2370639,0.690,-0.080
2370640,0.720,-0.060
2370641,0.740,-0.080
2370642,0.755,-0.085
2370643,0.780,-0.095
2370644,0.820,-0.095
2370645,0.845,-0.040
2370646,0.845,-0.020
2370647,0.845,-0.035
2370648,0.860,-0.010
2370649,0.895,0.020
2370650,0.915,0.025
2370651,0.955,0.045
2370652,0.940,0.060
2370653,0.950,0.100
2370654,0.925,0.125
2370655,0.905,0.135
2370656,0.865,0.140
2370657,0.790,0.170
2370658,0.710,0.190
2370659,0.660,0.165
2370660,0.620,0.175
2370661,0.545,0.185
2370662,0.510,0.175
2370663,0.465,0.160
2370664,0.385,0.150
2370665,0.345,0.120
2370666,0.295,0.105
2370667,0.255,0.105
2370668,0.250,0.095
2370669,0.205,0.070
2370670,0.155,0.040
2370671,0.130,0.015
2370672,0.075,-0.015
2370673,0.080,0.005
2370674,0.045,-0.015
2370675,0.050,0.000
2370676,0.035,-0.005
2370677,0.035,0.000
2370678,0.010,0.010
2370679,0.015,-0.020
2370680,0.010,-0.030
2370681,0.030,-0.055
2370682,0.055,-0.040
2370683,0.050,-0.035
2370684,0.030,-0.035
2370685,0.015,-0.015
2370686,0.000,-0.020
2370687,0.010,-0.030
2370688,0.035,-0.025
2370689,0.020,-0.020
2370690,0.020,-0.030
2370691,0.030,-0.025
2370692,0.055,-0.050
2370693,0.065,-0.045
2370694,0.065,-0.050
2370695,0.055,-0.055
2370696,0.050,-0.030
2370697,0.040,-0.020
2370698,0.035,-0.040
2370699,0.060,-0.030
2370700,0.045,-0.040
2370701,0.030,-0.065
2370702,0.030,-0.060
2370703,0.025,-0.055
2370704,0.005,-0.085
2370705,-0.010,-0.085
2370706,-0.015,-0.080
2370707,-0.050,-0.105
2370708,-0.080,-0.110
2370709,-0.080,-0.085
2370710,-0.085,-0.090
2370711,-0.075,-0.085
2370712,-0.070,-0.100
2370713,-0.070,-0.110
2370714,-0.070,-0.090
2370715,-0.065,-0.080
2370716,-0.065,-0.070
2370717,-0.060,-0.065
2370718,-0.045,-0.050
2370719,-0.040,-0.065
2370720,-0.030,-0.040
2370721,-0.020,-0.030
2370722,-0.030,-0.010
2370723,-0.040,-0.015
2370724,-0.040,-0.010
2370725,-0.020,0.000
2370726,-0.015,0.010
2370727,0.005,0.025
2370728,-0.005,0.040
2370729,-0.015,0.030
2370730,0.000,0.035
2370731,0.000,0.030
2370732,-0.010,0.025
2370733,-0.005,0.020
2370734,-0.010,0.050
2370735,0.005,0.020
2370736,-0.015,0.035
2370737,0.000,0.020
2370738,0.020,0.040
2370739,0.005,0.050
2370740,0.030,0.050
2370741,0.010,0.035
2370742,0.015,0.005
2370743,0.035,0.000
2370744,0.030,0.000
2370745,0.015,0.005
2370746,0.045,0.020
2370747,0.050,0.020
2370748,0.080,0.005
2370749,0.050,0.000
2370750,0.010,0.005
2370751,0.035,0.000
2370752,-0.005,-0.015
2370753,-0.005,0.000
2370754,-0.020,0.000
2370755,-0.030,0.000
2370756,-0.025,-0.020
2370757,-0.015,-0.020
2370758,-0.045,-0.010
2370759,-0.035,-0.010
2370760,-0.050,0.000
2370761,-0.045,-0.005
2370762,-0.050,0.005
2370763,-0.025,-0.015
2370764,-0.005,-0.025
2370765,0.000,0.035
2370766,0.005,0.100
2370767,-0.005,0.165
2370768,-0.025,0.255
2370769,-0.025,0.390
2370770,0.005,0.580
2370771,0.065,0.800
2370772,0.150,1.020
2370773,0.190,1.150
2370774,0.050,1.240
2370775,-0.290,1.420
2370776,-0.835,1.640
2370777,-1.490,1.775
2370778,-2.090,1.810
2370779,-2.645,1.755
2370780,-2.920,1.695
2370781,-2.945,1.585
2370782,-2.815,1.505
2370783,-2.615,1.445
2370784,-2.460,1.330
2370785,-2.350,1.175
2370786,-2.190,1.055
2370787,-2.020,0.955
2370788,-1.875,0.865
2370789,-1.740,0.725
2370790,-1.610,0.490
2370791,-1.475,0.160
2370792,-1.360,-0.145
2370793,-1.280,-0.325
2370794,-1.205,-0.425
2370795,-1.075,-0.430
2370796,-0.935,-0.375
2370797,-0.755,-0.315
2370798,-0.600,-0.300
2370799,-0.390,-0.295
2370800,-0.205,-0.230
2370801,-0.005,-0.230
2370802,0.130,-0.260
2370803,0.225,-0.270
2370804,0.295,-0.230
2370805,0.330,-0.175
2370806,0.360,-0.160
2370807,0.375,-0.150
2370808,0.375,-0.150
2370809,0.410,-0.120
2370810,0.470,-0.140
2370811,0.450,-0.160
2370812,0.510,-0.145
2370813,0.495,-0.115
2370814,0.500,-0.100
2370815,0.550,-0.090
2370816,0.550,-0.070
2370817,0.560,-0.065
2370818,0.590,-0.080
2370819,0.615,-0.120
2370820,0.630,-0.115
2370821,0.650,-0.110
2370822,0.680,-0.085
2370823,0.700,-0.095
2370824,0.725,-0.090
2370825,0.765,-0.080
2370826,0.780,-0.095
2370827,0.795,-0.080
2370828,0.840,-0.075
2370829,0.860,-0.065
2370830,0.905,-0.045
2370831,0.930,-0.055
2370832,0.990,-0.045
2370833,1.000,-0.020
2370834,1.035,-0.025
2370835,1.045,0.010
2370836,1.070,-0.015
2370837,1.055,-0.005
2370838,1.010,-0.005
2370839,1.005,-0.010
2370840,0.945,-0.005
2370841,0.870,0.035
2370842,0.820,0.070
2370843,0.785,0.140
2370844,0.735,0.160
2370845,0.675,0.175
2370846,0.650,0.175
2370847,0.640,0.180
2370848,0.605,0.190
2370849,0.555,0.195
2370850,0.510,0.175
2370851,0.430,0.175
2370852,0.390,0.140
2370853,0.360,0.125
2370854,0.335,0.090
2370855,0.295,0.085
2370856,0.265,0.060
2370857,0.210,0.030
2370858,0.180,0.005
2370859,0.165,0.010
2370860,0.140,0.015
2370861,0.125,-0.015
2370862,0.095,-0.065
2370863,0.075,-0.070
2370864,0.055,-0.085
2370865,0.070,-0.085
2370866,0.060,-0.120
2370867,0.050,-0.145
2370868,0.060,-0.150
2370869,0.040,-0.130
2370870,0.040,-0.140
2370871,0.045,-0.120
2370872,0.045,-0.120
2370873,0.040,-0.120
2370874,0.075,-0.140
2370875,0.055,-0.135
2370876,0.060,-0.170
2370877,0.095,-0.160
2370878,0.090,-0.160
2370879,0.040,-0.130
2370880,0.015,-0.110
2370881,-0.010,-0.095
2370882,0.000,-0.120
2370883,-0.030,-0.145
2370884,-0.035,-0.130
2370885,-0.045,-0.100
2370886,-0.015,-0.095
2370887,-0.030,-0.085
2370888,-0.040,-0.080
2370889,-0.045,-0.075
2370890,-0.040,-0.120
2370891,-0.055,-0.105
2370892,-0.055,-0.100
2370893,-0.050,-0.100
2370894,-0.015,-0.100
2370895,-0.040,-0.140
2370896,-0.055,-0.145
2370897,-0.050,-0.105
2370898,-0.035,-0.125
2370899,-0.070,-0.120
2370900,-0.055,-0.140
2370901,-0.065,-0.120
2370902,-0.040,-0.150
2370903,-0.070,-0.140
2370904,-0.055,-0.160
2370905,-0.045,-0.155
2370906,-0.040,-0.155
2370907,-0.060,-0.165
2370908,-0.040,-0.180
2370909,-0.030,-0.150
2370910,-0.025,-0.125
2370911,-0.040,-0.140
2370912,-0.050,-0.135
2370913,-0.050,-0.130
2370914,-0.050,-0.125
2370915,-0.070,-0.105
2370916,-0.080,-0.115
2370917,-0.095,-0.100
2370918,-0.140,-0.065
2370919,-0.135,-0.035
2370920,-0.105,-0.040
2370921,-0.095,-0.060
2370922,-0.110,-0.050
2370923,-0.125,-0.070
2370924,-0.120,-0.085
2370925,-0.120,-0.060
2370926,-0.105,-0.045
2370927,-0.115,-0.060
2370928,-0.100,-0.050
2370929,-0.095,-0.050
2370930,-0.070,-0.060
2370931,-0.060,-0.065
2370932,-0.105,-0.070
2370933,-0.065,-0.095
2370934,-0.075,-0.075
2370935,-0.100,-0.085
2370936,-0.050,-0.105
2370937,-0.085,-0.095
2370938,-0.085,-0.075
2370939,-0.075,-0.090
2370940,-0.080,-0.120
2370941,-0.090,-0.130
2370942,-0.085,-0.110
2370943,-0.080,-0.120
2370944,-0.060,-0.110
2370945,-0.055,-0.115
2370946,-0.035,-0.085
2370947,-0.010,-0.090
2370948,-0.025,-0.110
2370949,-0.025,-0.120
2370950,-0.050,-0.115
2370951,-0.055,-0.095
2370952,-0.080,-0.075
2370953,-0.090,-0.060
2370954,-0.100,-0.045
2370955,-0.100,-0.080
2370956,-0.090,-0.060
2370957,-0.075,-0.025
2370958,-0.070,-0.005
2370959,-0.075,-0.015
2370960,-0.090,-0.015
2370961,-0.095,0.005
2370962,-0.095,0.025
2370963,-0.095,-0.015
2370964,-0.070,-0.025
2370965,-0.090,-0.035
2370966,-0.060,-0.025
2370967,-0.070,-0.015
2370968,-0.065,-0.020
2370969,-0.065,-0.035
2370970,-0.080,-0.080
2370971,-0.085,-0.060
2370972,-0.095,-0.035
2370973,-0.090,-0.060
2370974,-0.075,-0.090
2370975,-0.110,-0.120
2370976,-0.075,-0.115
2370977,-0.105,-0.110
2370978,-0.105,-0.110
2370979,-0.080,-0.125
2370980,-0.055,-0.120
2370981,-0.095,-0.140
2370982,-0.065,-0.120
2370983,-0.060,-0.125
2370984,-0.050,-0.100
2370985,-0.055,-0.110
2370986,-0.030,-0.110
2370987,-0.060,-0.090
2370988,-0.055,-0.070
2370989,-0.085,-0.055
2370990,-0.095,-0.040
2370991,-0.110,-0.025
2370992,-0.125,0.015
2370993,-0.110,0.000
2370994,-0.095,0.005
2370995,-0.090,0.015
2370996,-0.105,0.000
2370997,-0.115,0.000
2370998,-0.100,0.045
2370999,-0.075,0.085
2371000,-0.080,0.210
2371001,-0.080,0.415
2371002,-0.070,0.720
2371003,-0.040,1.075
2371004,0.035,1.330
2371005,-0.045,1.475
2371006,-0.320,1.605
2371007,-0.830,1.755
2371008,-1.475,1.875
2371009,-2.115,1.845
2371010,-2.645,1.725
2371011,-2.975,1.660
2371012,-2.970,1.565
2371013,-2.805,1.415
2371014,-2.600,1.300
2371015,-2.465,1.155
2371016,-2.325,1.010
2371017,-2.135,0.930
2371018,-1.975,0.885
2371019,-1.870,0.855
2371020,-1.750,0.830
2371021,-1.630,0.600
2371022,-1.525,0.215
2371023,-1.395,-0.090
2371024,-1.305,-0.265
2371025,-1.195,-0.355
2371026,-1.090,-0.375
2371027,-0.940,-0.355
2371028,-0.785,-0.325
2371029,-0.575,-0.290
2371030,-0.390,-0.265
2371031,-0.215,-0.240
2371032,-0.070,-0.185
2371033,0.055,-0.170
2371034,0.140,-0.185
2371035,0.200,-0.175
2371036,0.230,-0.180
2371037,0.265,-0.170
2371038,0.295,-0.175
2371039,0.320,-0.185
2371040,0.340,-0.185
2371041,0.400,-0.155
2371042,0.370,-0.160
2371043,0.380,-0.180
2371044,0.385,-0.145
2371045,0.430,-0.135
2371046,0.435,-0.140
2371047,0.440,-0.160
2371048,0.455,-0.120
2371049,0.475,-0.090
2371050,0.485,-0.100
2371051,0.510,-0.115
2371052,0.530,-0.120
2371053,0.560,-0.110
2371054,0.560,-0.095
2371055,0.610,-0.070
2371056,0.630,-0.085
2371057,0.660,-0.090
2371058,0.660,-0.130
2371059,0.675,-0.135
2371060,0.695,-0.130
2371061,0.725,-0.120
2371062,0.750,-0.090
2371063,0.750,-0.080
2371064,0.760,-0.065
2371065,0.780,-0.050
2371066,0.810,-0.060
2371067,0.835,-0.045
2371068,0.840,-0.050
2371069,0.850,-0.025
2371070,0.850,0.020
2371071,0.855,0.050
2371072,0.845,0.050
2371073,0.825,0.100
2371074,0.785,0.125
2371075,0.770,0.110
2371076,0.725,0.110
2371077,0.660,0.115
2371078,0.635,0.115
2371079,0.580,0.125
2371080,0.535,0.140
2371081,0.490,0.140
2371082,0.430,0.105
2371083,0.380,0.060
2371084,0.350,0.060
2371085,0.300,0.050
2371086,0.255,0.035
2371087,0.245,0.020
2371088,0.205,-0.005
2371089,0.185,-0.030
2371090,0.180,-0.030
2371091,0.145,-0.010
2371092,0.135,-0.020
2371093,0.105,-0.035
2371094,0.080,-0.060
2371095,0.080,-0.105
2371096,0.050,-0.125
2371097,0.030,-0.125
2371098,0.020,-0.110
2371099,-0.025,-0.110
2371100,-0.050,-0.125
2371101,-0.050,-0.105
2371102,-0.055,-0.105
2371103,-0.045,-0.125
2371104,-0.040,-0.120
2371105,-0.040,-0.095
2371106,-0.050,-0.090
2371107,-0.035,-0.090
2371108,-0.020,-0.115
2371109,-0.020,-0.120
2371110,0.000,-0.130
2371111,0.000,-0.110
2371112,0.035,-0.125
2371113,0.015,-0.140
2371114,0.010,-0.135
2371115,0.040,-0.160
2371116,0.040,-0.170
2371117,0.025,-0.205
2371118,0.040,-0.220
2371119,0.010,-0.210
2371120,0.025,-0.230
2371121,0.000,-0.250
2371122,0.005,-0.245
2371123,-0.005,-0.235
2371124,-0.010,-0.245
2371125,-0.015,-0.235
2371126,0.000,-0.185
2371127,0.000,-0.185
2371128,0.000,-0.170
2371129,0.010,-0.195
2371130,0.020,-0.195
2371131,0.025,-0.180
2371132,0.025,-0.200
2371133,0.025,-0.145
2371134,0.015,-0.110
2371135,-0.005,-0.120
2371136,-0.030,-0.115
2371137,-0.035,-0.135
2371138,-0.030,-0.135
2371139,-0.055,-0.090
2371140,-0.045,-0.125
2371141,-0.085,-0.120
2371142,-0.080,-0.105
2371143,-0.080,-0.070
2371144,-0.070,-0.085
2371145,-0.075,-0.085
2371146,-0.065,-0.105
2371147,-0.055,-0.085
2371148,-0.045,-0.105
2371149,-0.040,-0.100
2371150,-0.055,-0.075
2371151,-0.050,-0.065
2371152,-0.060,-0.070
2371153,-0.065,-0.100
2371154,-0.050,-0.120
2371155,-0.050,-0.130
2371156,-0.055,-0.140
2371157,-0.045,-0.150
2371158,-0.065,-0.130
2371159,-0.040,-0.130
2371160,-0.060,-0.150
2371161,-0.040,-0.130
2371162,-0.065,-0.140
2371163,-0.050,-0.125
2371164,-0.060,-0.120
2371165,-0.060,-0.140
2371166,-0.075,-0.145
2371167,-0.090,-0.145
2371168,-0.050,-0.120
2371169,-0.070,-0.100
2371170,-0.070,-0.110
2371171,-0.080,-0.065
2371172,-0.050,-0.055
2371173,-0.040,-0.040
2371174,-0.010,-0.040
2371175,-0.005,-0.010
2371176,-0.015,-0.020
2371177,-0.005,-0.025
2371178,-0.025,-0.040
2371179,-0.010,-0.030
2371180,-0.015,-0.025
2371181,-0.045,-0.015
2371182,-0.050,-0.030
2371183,-0.065,-0.030
2371184,-0.085,-0.020
2371185,-0.050,-0.025
2371186,-0.075,-0.035
2371187,-0.065,-0.030
2371188,-0.025,-0.060
2371189,-0.010,-0.040
2371190,-0.030,-0.080
2371191,-0.035,-0.090
2371192,-0.050,-0.115
2371193,-0.045,-0.110
2371194,-0.065,-0.120
2371195,-0.045,-0.120
2371196,-0.060,-0.110
2371197,-0.055,-0.095
2371198,-0.050,-0.105
2371199,-0.085,-0.085
2371200,-0.045,-0.035
2371201,-0.040,0.015
2371202,-0.070,0.130
2371203,-0.070,0.255
2371204,-0.025,0.475
2371205,0.005,0.790
2371206,0.065,1.015
2371207,0.000,1.135
2371208,-0.265,1.295
2371209,-0.740,1.500
2371210,-1.390,1.635
2371211,-2.010,1.690
2371212,-2.550,1.625
2371213,-2.910,1.550
2371214,-2.970,1.485
2371215,-2.815,1.425
2371216,-2.625,1.340
2371217,-2.480,1.235
2371218,-2.375,1.115
2371219,-2.210,1.045
2371220,-2.040,0.990
2371221,-1.915,0.925
2371222,-1.800,0.850
2371223,-1.670,0.625
2371224,-1.525,0.235
2371225,-1.400,-0.185
2371226,-1.300,-0.420
2371227,-1.185,-0.490
2371228,-1.065,-0.490
2371229,-0.945,-0.425
2371230,-0.805,-0.390
2371231,-0.630,-0.375
2371232,-0.435,-0.345
2371233,-0.270,-0.300
2371234,-0.105,-0.270
2371235,0.055,-0.280
2371236,0.175,-0.305
2371237,0.260,-0.310
2371238,0.290,-0.315
2371239,0.335,-0.270
2371240,0.375,-0.270
2371241,0.405,-0.275
2371242,0.410,-0.300
2371243,0.410,-0.265
2371244,0.450,-0.240
2371245,0.435,-0.220
2371246,0.460,-0.205
2371247,0.465,-0.190
2371248,0.485,-0.165
2371249,0.525,-0.170
2371250,0.550,-0.175
2371251,0.550,-0.155
2371252,0.575,-0.135
2371253,0.600,-0.120
2371254,0.595,-0.130
2371255,0.630,-0.115
2371256,0.675,-0.105
2371257,0.710,-0.125
2371258,0.745,-0.135
2371259,0.750,-0.130
2371260,0.795,-0.145
2371261,0.810,-0.120
2371262,0.840,-0.120
2371263,0.885,-0.110
2371264,0.925,-0.100
2371265,0.945,-0.120
2371266,0.980,-0.150
2371267,0.965,-0.155
2371268,0.980,-0.150
2371269,1.005,-0.150
2371270,1.020,-0.160
2371271,0.995,-0.175
2371272,0.975,-0.165
2371273,0.975,-0.145
2371274,0.930,-0.140
2371275,0.920,-0.130
2371276,0.835,-0.090
2371277,0.795,-0.060
2371278,0.790,-0.060
2371279,0.715,-0.075
2371280,0.650,-0.065
2371281,0.615,-0.055
2371282,0.595,-0.005
2371283,0.500,0.045
2371284,0.455,0.035
2371285,0.400,0.075
2371286,0.410,0.085
2371287,0.395,0.065
2371288,0.365,0.055
2371289,0.350,0.055
2371290,0.320,0.060
2371291,0.290,0.050
2371292,0.270,0.020
2371293,0.250,0.035
2371294,0.235,0.045
2371295,0.200,0.020
2371296,0.205,0.010
2371297,0.190,0.020
2371298,0.185,0.020
2371299,0.175,0.015
2371300,0.175,-0.005
2371301,0.165,-0.005
2371302,0.190,0.000
2371303,0.200,-0.025
2371304,0.165,-0.050
2371305,0.180,-0.070
2371306,0.175,-0.080
2371307,0.180,-0.090
2371308,0.170,-0.115
2371309,0.150,-0.115
2371310,0.145,-0.120
2371311,0.120,-0.120
2371312,0.120,-0.125
2371313,0.090,-0.140
2371314,0.050,-0.140
2371315,0.030,-0.155
2371316,-0.005,-0.165
2371317,-0.040,-0.195
2371318,-0.045,-0.205
2371319,-0.065,-0.195
2371320,-0.075,-0.160
2371321,-0.090,-0.160
2371322,-0.090,-0.150
2371323,-0.095,-0.125
2371324,-0.065,-0.120
2371325,-0.035,-0.110
2371326,-0.050,-0.125
2371327,-0.040,-0.115
2371328,-0.030,-0.065
2371329,-0.035,-0.075
2371330,-0.045,-0.085
2371331,-0.025,-0.080
2371332,-0.025,-0.050
2371333,-0.025,-0.040
2371334,-0.020,-0.030
2371335,-0.035,-0.005
2371336,0.000,0.000
2371337,0.015,-0.005
2371338,0.015,0.000
2371339,0.020,-0.010
2371340,0.025,-0.005
2371341,0.015,-0.015
2371342,0.035,0.000
2371343,0.030,0.055
2371344,0.055,0.150
2371345,0.035,0.270
2371346,0.075,0.455
2371347,0.095,0.685
2371348,0.155,0.910
2371349,0.180,1.075
2371350,0.005,1.240
2371351,-0.340,1.420
2371352,-0.930,1.600
2371353,-1.625,1.680
2371354,-2.175,1.665
2371355,-2.620,1.610
2371356,-2.845,1.570
2371357,-2.830,1.505
2371358,-2.710,1.415
2371359,-2.575,1.340
2371360,-2.460,1.190
2371361,-2.340,1.045
2371362,-2.220,0.960
2371363,-2.095,0.885
2371364,-1.945,0.810
2371365,-1.850,0.715
2371366,-1.735,0.505
2371367,-1.610,0.215
2371368,-1.485,-0.100
2371369,-1.390,-0.305
2371370,-1.280,-0.370
2371371,-1.165,-0.380
2371372,-1.010,-0.340
2371373,-0.855,-0.315
2371374,-0.675,-0.325
2371375,-0.485,-0.300
2371376,-0.280,-0.270
2371377,-0.090,-0.275
2371378,0.065,-0.270
2371379,0.185,-0.285
2371380,0.265,-0.290
2371381,0.330,-0.280
2371382,0.350,-0.290
2371383,0.375,-0.300
2371384,0.405,-0.290
2371385,0.440,-0.255
2371386,0.445,-0.225
2371387,0.445,-0.210
2371388,0.485,-0.160
2371389,0.525,-0.145
2371390,0.555,-0.150
2371391,0.580,-0.160
2371392,0.610,-0.155
2371393,0.620,-0.145
2371394,0.645,-0.130
2371395,0.630,-0.095
2371396,0.660,-0.080
2371397,0.680,-0.060
2371398,0.680,-0.045
2371399,0.750,-0.045
2371400,0.770,-0.040
2371401,0.805,-0.040
2371402,0.810,-0.055
2371403,0.840,-0.080
2371404,0.855,-0.085
2371405,0.865,-0.105
2371406,0.880,-0.125
2371407,0.850,-0.140
2371408,0.835,-0.155
2371409,0.830,-0.155
2371410,0.825,-0.130
2371411,0.830,-0.140
2371412,0.835,-0.145
2371413,0.835,-0.170
2371414,0.820,-0.155
2371415,0.825,-0.130
2371416,0.830,-0.140
2371417,0.820,-0.130
2371418,0.805,-0.120
2371419,0.800,-0.120
2371420,0.765,-0.130
2371421,0.710,-0.120
2371422,0.690,-0.120
2371423,0.660,-0.095
2371424,0.590,-0.100
2371425,0.510,-0.095
2371426,0.465,-0.075
2371427,0.440,-0.075
2371428,0.390,-0.070
2371429,0.310,-0.100
2371430,0.270,-0.100
2371431,0.255,-0.135
2371432,0.205,-0.150
2371433,0.175,-0.135
2371434,0.145,-0.120
2371435,0.100,-0.100
2371436,0.075,-0.090
2371437,0.070,-0.085
2371438,0.075,-0.090
2371439,0.070,-0.080
2371440,0.080,-0.070
2371441,0.080,-0.070
2371442,0.065,-0.045
2371443,0.090,-0.035
2371444,0.100,-0.020
2371445,0.115,-0.010
2371446,0.120,-0.005
2371447,0.120,-0.005
2371448,0.125,0.005
2371449,0.150,0.020
2371450,0.140,0.020
2371451,0.160,0.020
2371452,0.165,0.030
2371453,0.205,0.010
2371454,0.200,-0.030
2371455,0.185,-0.070
2371456,0.180,-0.075
2371457,0.170,-0.100
2371458,0.105,-0.150
2371459,0.065,-0.175
2371460,0.030,-0.180
2371461,0.020,-0.175
2371462,0.000,-0.170
2371463,-0.030,-0.175
2371464,-0.040,-0.185
2371465,-0.065,-0.180
2371466,-0.055,-0.185
2371467,-0.075,-0.145
2371468,-0.080,-0.155
2371469,-0.050,-0.175
2371470,-0.075,-0.195
2371471,-0.075,-0.175
2371472,-0.050,-0.135
2371473,-0.060,-0.140
2371474,-0.095,-0.115
2371475,-0.085,-0.105
2371476,-0.070,-0.095
2371477,-0.025,-0.105
2371478,-0.035,-0.075
2371479,-0.020,-0.060
2371480,-0.040,-0.050
2371481,-0.050,-0.040
2371482,-0.010,-0.060
2371483,-0.010,-0.045
2371484,-0.025,-0.050
2371485,-0.020,-0.040
2371486,0.000,-0.050
2371487,0.000,-0.050
2371488,-0.020,-0.030
2371489,-0.020,-0.040
2371490,-0.015,-0.060
2371491,-0.005,-0.045
2371492,-0.010,-0.045
2371493,-0.005,-0.030
2371494,0.005,-0.080
2371495,0.025,-0.115
2371496,0.030,-0.125
2371497,0.040,-0.125
2371498,0.030,-0.110
2371499,0.050,-0.105
2371500,0.060,-0.080
2371501,0.040,-0.080
2371502,0.020,-0.095
2371503,0.025,-0.080
2371504,0.015,-0.095
2371505,0.000,-0.085
2371506,-0.020,-0.095
2371507,-0.005,-0.140
2371508,-0.020,-0.160
2371509,-0.040,-0.150
2371510,-0.075,-0.100
2371511,-0.085,-0.110
2371512,-0.085,-0.120
2371513,-0.100,-0.115
2371514,-0.070,-0.090
2371515,-0.050,-0.075
2371516,-0.035,-0.065
2371517,-0.045,-0.045
2371518,-0.015,-0.035
2371519,-0.030,-0.035
2371520,-0.015,-0.050
2371521,-0.025,-0.030
2371522,-0.030,-0.015
2371523,-0.015,0.000
2371524,-0.005,0.035
2371525,0.000,0.120
2371526,-0.015,0.250
2371527,-0.020,0.425
2371528,-0.020,0.640
2371529,0.070,0.870
2371530,0.120,1.005
2371531,0.065,1.125
2371532,-0.210,1.260
2371533,-0.665,1.400
2371534,-1.280,1.525
2371535,-1.910,1.535
2371536,-2.430,1.520
2371537,-2.795,1.430
2371538,-2.905,1.370
2371539,-2.800,1.290
2371540,-2.610,1.255
2371541,-2.460,1.140
2371542,-2.330,1.015
2371543,-2.210,0.895
2371544,-2.015,0.845
2371545,-1.865,0.740
2371546,-1.755,0.660
2371547,-1.655,0.570
2371548,-1.545,0.385
2371549,-1.445,0.110
2371550,-1.370,-0.190
2371551,-1.290,-0.400
2371552,-1.205,-0.465
2371553,-1.100,-0.460
2371554,-0.940,-0.395
2371555,-0.795,-0.360
2371556,-0.645,-0.315
2371557,-0.490,-0.290
2371558,-0.320,-0.245
2371559,-0.145,-0.245
2371560,0.020,-0.230
2371561,0.155,-0.210
2371562,0.265,-0.210
2371563,0.315,-0.205
2371564,0.350,-0.195
2371565,0.360,-0.200
2371566,0.395,-0.200
2371567,0.420,-0.235
2371568,0.440,-0.215
2371569,0.465,-0.210
2371570,0.490,-0.215
2371571,0.495,-0.225
2371572,0.505,-0.225
2371573,0.530,-0.230
2371574,0.545,-0.220
2371575,0.560,-0.215
2371576,0.580,-0.205
2371577,0.575,-0.220
2371578,0.605,-0.210
2371579,0.640,-0.205
2371580,0.635,-0.185
2371581,0.670,-0.165
2371582,0.695,-0.160
2371583,0.725,-0.130
2371584,0.750,-0.165
2371585,0.790,-0.180
2371586,0.790,-0.210
2371587,0.815,-0.210
2371588,0.840,-0.190
2371589,0.860,-0.145
2371590,0.900,-0.150
2371591,0.925,-0.135
2371592,0.950,-0.140
2371593,0.965,-0.145
2371594,0.970,-0.130
2371595,0.970,-0.115
2371596,0.985,-0.120
2371597,0.955,-0.105
2371598,0.940,-0.090
2371599,0.915,-0.050
2371600,0.895,-0.060
2371601,0.855,-0.055
2371602,0.780,-0.015
2371603,0.745,0.025
2371604,0.705,0.055
2371605,0.665,0.095
2371606,0.630,0.090
2371607,0.600,0.085
2371608,0.540,0.100
2371609,0.500,0.080
2371610,0.465,0.080
2371611,0.425,0.065
2371612,0.400,0.020
2371613,0.340,0.015
2371614,0.310,-0.025
2371615,0.270,-0.040
2371616,0.265,-0.085
2371617,0.215,-0.095
2371618,0.180,-0.080
2371619,0.145,-0.080
2371620,0.130,-0.080
2371621,0.135,-0.080
2371622,0.095,-0.100
2371623,0.100,-0.120
2371624,0.095,-0.145
2371625,0.095,-0.145
2371626,0.080,-0.120
2371627,0.055,-0.100
2371628,0.065,-0.105
2371629,0.050,-0.120
2371630,0.045,-0.135
2371631,0.070,-0.130
2371632,0.075,-0.105
2371633,0.105,-0.125
2371634,0.100,-0.160
2371635,0.110,-0.160
2371636,0.110,-0.155
2371637,0.085,-0.145
2371638,0.060,-0.160
2371639,0.005,-0.150
2371640,-0.010,-0.160
2371641,0.000,-0.155
2371642,-0.015,-0.145
2371643,-0.030,-0.165
2371644,-0.065,-0.180
2371645,-0.065,-0.160
2371646,-0.075,-0.160
2371647,-0.095,-0.160
2371648,-0.095,-0.150
2371649,-0.105,-0.140
2371650,-0.075,-0.160
2371651,-0.080,-0.195
2371652,-0.090,-0.250
2371653,-0.080,-0.240
2371654,-0.090,-0.240
2371655,-0.080,-0.250
2371656,-0.100,-0.245
2371657,-0.095,-0.255
2371658,-0.095,-0.265
2371659,-0.085,-0.280
2371660,-0.095,-0.280
2371661,-0.090,-0.275
2371662,-0.090,-0.275
2371663,-0.055,-0.245
2371664,-0.060,-0.265
2371665,-0.075,-0.220
2371666,-0.080,-0.210
2371667,-0.105,-0.200
2371668,-0.090,-0.215
2371669,-0.075,-0.225
2371670,-0.055,-0.210
2371671,-0.045,-0.220
2371672,-0.030,-0.210
2371673,-0.055,-0.205
2371674,-0.070,-0.215
2371675,-0.075,-0.180
2371676,-0.060,-0.180
2371677,-0.055,-0.200
2371678,-0.055,-0.195
2371679,-0.070,-0.180
2371680,-0.040,-0.150
2371681,-0.060,-0.150
2371682,-0.080,-0.135
2371683,-0.105,-0.110
2371684,-0.110,-0.095
2371685,-0.115,-0.105
2371686,-0.110,-0.105
2371687,-0.120,-0.105
2371688,-0.080,-0.075
2371689,-0.100,-0.105
2371690,-0.105,-0.140
2371691,-0.140,-0.180
2371692,-0.165,-0.190
2371693,-0.140,-0.170
2371694,-0.180,-0.170
2371695,-0.170,-0.170
2371696,-0.135,-0.205
2371697,-0.125,-0.200
2371698,-0.140,-0.195
2371699,-0.140,-0.170
2371700,-0.140,-0.145
2371701,-0.145,-0.110
2371702,-0.150,-0.085
2371703,-0.150,-0.100
2371704,-0.155,-0.095
2371705,-0.125,-0.080
2371706,-0.090,-0.090
2371707,-0.095,-0.110
2371708,-0.105,-0.110
2371709,-0.080,-0.085
2371710,-0.090,-0.080
2371711,-0.070,-0.085
2371712,-0.085,-0.110
2371713,-0.080,-0.120
2371714,-0.050,-0.120
2371715,-0.060,-0.140
2371716,-0.065,-0.115
2371717,-0.035,-0.105
2371718,-0.070,-0.080
2371719,-0.095,-0.070
2371720,-0.090,0.000
2371721,-0.095,0.140
2371722,-0.095,0.355
2371723,-0.080,0.655
2371724,-0.030,1.000
2371725,-0.005,1.205
2371726,-0.130,1.375
2371727,-0.405,1.475
2371728,-0.875,1.600
2371729,-1.520,1.675
2371730,-2.105,1.630
2371731,-2.600,1.540
2371732,-2.910,1.445
2371733,-2.940,1.335
2371734,-2.755,1.225
2371735,-2.555,1.100
2371736,-2.410,0.990
2371737,-2.295,0.885
2371738,-2.165,0.825
2371739,-2.010,0.765
2371740,-1.920,0.725
2371741,-1.815,0.690
2371742,-1.670,0.540
2371743,-1.530,0.225
2371744,-1.435,-0.130
2371745,-1.355,-0.340
2371746,-1.260,-0.430
2371747,-1.125,-0.465
2371748,-0.985,-0.470
2371749,-0.865,-0.400
2371750,-0.670,-0.410
2371751,-0.505,-0.380
2371752,-0.360,-0.335
2371753,-0.200,-0.285
2371754,-0.020,-0.290
2371755,0.125,-0.315
2371756,0.205,-0.315
2371757,0.255,-0.300
2371758,0.320,-0.300
2371759,0.360,-0.320
2371760,0.395,-0.345
2371761,0.385,-0.335
2371762,0.395,-0.285
2371763,0.370,-0.305
2371764,0.375,-0.315
2371765,0.365,-0.310
2371766,0.350,-0.280
2371767,0.375,-0.300
2371768,0.375,-0.300
2371769,0.375,-0.290
2371770,0.390,-0.275
2371771,0.400,-0.250
2371772,0.400,-0.225
2371773,0.360,-0.220
2371774,0.385,-0.210
2371775,0.440,-0.195
2371776,0.470,-0.190
2371777,0.475,-0.170
2371778,0.525,-0.105
2371779,0.510,-0.100
2371780,0.540,-0.100
2371781,0.595,-0.115
2371782,0.645,-0.105
2371783,0.690,-0.115
2371784,0.705,-0.110
2371785,0.725,-0.085
2371786,0.755,-0.060
2371787,0.785,-0.025
2371788,0.805,-0.020
2371789,0.815,-0.040
2371790,0.855,-0.025
2371791,0.860,-0.030
2371792,0.890,-0.015
2371793,0.885,0.000
2371794,0.865,0.030
2371795,0.845,0.055
2371796,0.875,0.085
2371797,0.855,0.070
2371798,0.830,0.100
2371799,0.775,0.085
2371800,0.710,0.085
2371801,0.645,0.075
2371802,0.565,0.045
2371803,0.525,0.040
2371804,0.460,0.030
2371805,0.395,0.015
2371806,0.355,-0.005
2371807,0.280,-0.020
2371808,0.215,-0.030
2371809,0.160,-0.035
2371810,0.105,-0.080
2371811,0.080,-0.095
2371812,0.070,-0.105
2371813,0.045,-0.090
2371814,0.000,-0.100
2371815,-0.020,-0.070
2371816,-0.055,-0.070
2371817,-0.065,-0.070
2371818,-0.055,-0.080
2371819,-0.040,-0.050
2371820,-0.040,-0.080
2371821,-0.025,-0.070
2371822,-0.015,-0.105
2371823,-0.030,-0.100
2371824,0.000,-0.100
2371825,0.005,-0.080
2371826,-0.005,-0.105
2371827,-0.010,-0.115
2371828,-0.015,-0.135
2371829,0.005,-0.125
2371830,0.000,-0.135
2371831,0.000,-0.145
2371832,0.010,-0.160
2371833,0.000,-0.170
2371834,-0.015,-0.190
2371835,-0.005,-0.190
2371836,-0.030,-0.200
2371837,-0.015,-0.210
2371838,0.015,-0.230
2371839,0.015,-0.220
2371840,0.000,-0.240
2371841,0.030,-0.265
2371842,0.020,-0.285
2371843,0.000,-0.255
2371844,-0.040,-0.240
2371845,-0.045,-0.240
2371846,-0.055,-0.240
2371847,-0.055,-0.265
2371848,-0.075,-0.255
2371849,-0.100,-0.230
2371850,-0.110,-0.180
2371851,-0.145,-0.200
2371852,-0.165,-0.165
2371853,-0.125,-0.155
2371854,-0.125,-0.160
2371855,-0.130,-0.155
2371856,-0.135,-0.155
2371857,-0.115,-0.155
2371858,-0.095,-0.150
2371859,-0.105,-0.125
2371860,-0.070,-0.135
2371861,-0.085,-0.125
2371862,-0.080,-0.120
2371863,-0.065,-0.115
2371864,-0.075,-0.110
2371865,-0.080,-0.130
2371866,-0.075,-0.150
2371867,-0.075,-0.155
2371868,-0.075,-0.130
2371869,-0.055,-0.135
2371870,-0.045,-0.145
2371871,-0.070,-0.150
2371872,-0.065,-0.145
2371873,-0.015,-0.155
2371874,-0.050,-0.200
2371875,-0.050,-0.190
2371876,-0.035,-0.130
2371877,-0.050,-0.040
2371878,-0.030,0.065
2371879,-0.025,0.250
2371880,-0.010,0.560
2371881,0.040,0.915
2371882,0.110,1.140
2371883,0.005,1.280
2371884,-0.225,1.385
2371885,-0.670,1.545
2371886,-1.320,1.685
2371887,-1.915,1.670
2371888,-2.460,1.565
2371889,-2.785,1.480
2371890,-2.795,1.390
2371891,-2.610,1.250
2371892,-2.450,1.155
2371893,-2.320,1.010
2371894,-2.250,0.875
2371895,-2.100,0.825
2371896,-1.935,0.760
2371897,-1.805,0.750
2371898,-1.715,0.690
2371899,-1.610,0.475
2371900,-1.485,0.080
2371901,-1.375,-0.235
2371902,-1.285,-0.435
2371903,-1.180,-0.560
2371904,-1.095,-0.600
2371905,-0.960,-0.520
2371906,-0.810,-0.520
2371907,-0.645,-0.540
2371908,-0.470,-0.535
2371909,-0.305,-0.500
2371910,-0.125,-0.490
2371911,0.045,-0.475
2371912,0.150,-0.490
2371913,0.210,-0.505
2371914,0.255,-0.485
2371915,0.320,-0.480
2371916,0.325,-0.500
2371917,0.360,-0.495
2371918,0.375,-0.490
2371919,0.390,-0.465
2371920,0.430,-0.490
2371921,0.430,-0.490
2371922,0.440,-0.495
2371923,0.475,-0.465
2371924,0.475,-0.430
2371925,0.475,-0.430
2371926,0.490,-0.410
2371927,0.500,-0.395
2371928,0.500,-0.390
2371929,0.500,-0.390
2371930,0.550,-0.390
2371931,0.565,-0.370
2371932,0.585,-0.375
2371933,0.620,-0.360
2371934,0.640,-0.370
2371935,0.680,-0.370
2371936,0.680,-0.390
2371937,0.735,-0.385
2371938,0.750,-0.420
2371939,0.780,-0.425
2371940,0.780,-0.420
2371941,0.785,-0.420
2371942,0.810,-0.430
2371943,0.830,-0.405
2371944,0.805,-0.420
2371945,0.815,-0.415
2371946,0.840,-0.360
2371947,0.835,-0.355
2371948,0.810,-0.350
2371949,0.785,-0.345
2371950,0.785,-0.310
2371951,0.750,-0.265
2371952,0.725,-0.230
2371953,0.670,-0.205
2371954,0.640,-0.200
2371955,0.590,-0.180
2371956,0.565,-0.180
2371957,0.520,-0.170
2371958,0.480,-0.175
2371959,0.430,-0.175
2371960,0.385,-0.160
2371961,0.335,-0.190
2371962,0.300,-0.200
2371963,0.270,-0.200
2371964,0.250,-0.185
2371965,0.235,-0.200
2371966,0.220,-0.240
2371967,0.200,-0.255
2371968,0.160,-0.250
2371969,0.110,-0.250
2371970,0.070,-0.265
2371971,0.045,-0.265
2371972,0.055,-0.285
2371973,0.050,-0.290
2371974,0.045,-0.315
2371975,0.000,-0.330
2371976,0.005,-0.310
2371977,-0.010,-0.305
2371978,-0.010,-0.320
2371979,-0.050,-0.350
2371980,-0.050,-0.360
2371981,-0.020,-0.360
2371982,-0.025,-0.355
2371983,-0.020,-0.370
2371984,0.000,-0.365
2371985,0.000,-0.350
2371986,0.010,-0.350
2371987,0.000,-0.355
2371988,0.030,-0.330
2371989,0.035,-0.335
2371990,0.040,-0.335
2371991,0.035,-0.345
2371992,0.030,-0.325
2371993,0.035,-0.285
2371994,0.050,-0.285
2371995,0.035,-0.305
2371996,0.065,-0.265
2371997,0.050,-0.275
2371998,0.070,-0.310
2371999,0.075,-0.285
2372000,0.080,-0.285
2372001,0.075,-0.255
2372002,0.060,-0.260
2372003,0.080,-0.275
2372004,0.075,-0.280
2372005,0.100,-0.260
2372006,0.120,-0.280
2372007,0.110,-0.275
2372008,0.125,-0.270
2372009,0.125,-0.260
2372010,0.130,-0.280
2372011,0.130,-0.295
2372012,0.080,-0.305
2372013,0.070,-0.290
2372014,0.045,-0.300
2372015,0.050,-0.315
2372016,0.015,-0.330
2372017,-0.010,-0.335
2372018,0.000,-0.340
2372019,-0.010,-0.320
2372020,-0.020,-0.305
2372021,-0.025,-0.315
2372022,-0.015,-0.340
2372023,-0.030,-0.375
2372024,-0.020,-0.370
2372025,-0.035,-0.355
2372026,-0.020,-0.345
2372027,-0.020,-0.335
2372028,-0.025,-0.305
2372029,-0.025,-0.255
2372030,-0.040,-0.255
2372031,-0.015,-0.245
2372032,0.015,-0.240
2372033,0.045,-0.210
2372034,0.050,-0.175
2372035,0.050,-0.105
2372036,0.050,0.005
2372037,0.090,0.200
2372038,0.120,0.420
2372039,0.175,0.685
2372040,0.225,0.855
2372041,0.130,1.010
2372042,-0.120,1.220
2372043,-0.650,1.435
2372044,-1.335,1.545
2372045,-1.955,1.535
2372046,-2.450,1.485
2372047,-2.675,1.410
2372048,-2.640,1.335
2372049,-2.445,1.265
2372050,-2.265,1.155
2372051,-2.145,0.980
2372052,-2.000,0.845
2372053,-1.875,0.730
2372054,-1.740,0.655
2372055,-1.645,0.590
2372056,-1.530,0.430
2372057,-1.445,0.130
2372058,-1.325,-0.255
2372059,-1.230,-0.490
2372060,-1.140,-0.625
2372061,-1.065,-0.670
2372062,-0.930,-0.670
2372063,-0.785,-0.615
2372064,-0.600,-0.575
2372065,-0.425,-0.540
2372066,-0.230,-0.530
2372067,-0.050,-0.520
2372068,0.110,-0.520
2372069,0.245,-0.515
2372070,0.325,-0.510
2372071,0.375,-0.505
2372072,0.415,-0.515
2372073,0.425,-0.495
2372074,0.445,-0.500
2372075,0.480,-0.475
2372076,0.485,-0.455
2372077,0.550,-0.445
2372078,0.555,-0.430
2372079,0.575,-0.410
2372080,0.605,-0.430
2372081,0.615,-0.460
2372082,0.655,-0.445
2372083,0.680,-0.430
2372084,0.685,-0.425
2372085,0.715,-0.430
2372086,0.730,-0.455
2372087,0.765,-0.450
2372088,0.830,-0.420
2372089,0.855,-0.465
2372090,0.845,-0.485
2372091,0.840,-0.455
2372092,0.865,-0.460
2372093,0.865,-0.490
2372094,0.915,-0.505
2372095,0.895,-0.490
2372096,0.895,-0.485
2372097,0.930,-0.500
2372098,0.930,-0.500
2372099,0.920,-0.485
2372100,0.895,-0.475
2372101,0.915,-0.450
2372102,0.880,-0.435
2372103,0.880,-0.425
2372104,0.915,-0.380
2372105,0.895,-0.340
2372106,0.870,-0.295
2372107,0.865,-0.255
2372108,0.830,-0.240
2372109,0.790,-0.185
2372110,0.770,-0.185
2372111,0.740,-0.150
2372112,0.655,-0.150
2372113,0.610,-0.160
2372114,0.575,-0.135
2372115,0.520,-0.105
2372116,0.495,-0.135
2372117,0.460,-0.165
2372118,0.410,-0.195
2372119,0.380,-0.185
2372120,0.375,-0.200
2372121,0.320,-0.235
2372122,0.295,-0.280
2372123,0.275,-0.310
2372124,0.250,-0.325
2372125,0.245,-0.335
2372126,0.225,-0.395
2372127,0.215,-0.390
2372128,0.155,-0.390
2372129,0.130,-0.420
2372130,0.095,-0.430
2372131,0.055,-0.425
2372132,0.040,-0.440
2372133,0.035,-0.450
2372134,0.025,-0.420
2372135,0.015,-0.430
2372136,-0.010,-0.390
2372137,0.000,-0.400
2372138,0.000,-0.395
2372139,-0.015,-0.385
2372140,-0.035,-0.360
2372141,0.000,-0.380
2372142,0.020,-0.385
2372143,0.045,-0.375
2372144,0.065,-0.385
2372145,0.070,-0.355
2372146,0.075,-0.345
2372147,0.080,-0.320
2372148,0.070,-0.300
2372149,0.060,-0.335
2372150,0.080,-0.375
2372151,0.070,-0.380
2372152,0.065,-0.350
2372153,0.090,-0.340
2372154,0.080,-0.315
2372155,0.080,-0.345
2372156,0.100,-0.350
2372157,0.115,-0.325
2372158,0.100,-0.350
2372159,0.110,-0.335
2372160,0.090,-0.330
2372161,0.105,-0.355
2372162,0.105,-0.370
2372163,0.110,-0.380
2372164,0.110,-0.395
2372165,0.120,-0.410
2372166,0.100,-0.410
2372167,0.100,-0.420
2372168,0.085,-0.385
2372169,0.085,-0.390
2372170,0.060,-0.390
2372171,0.050,-0.380
2372172,0.050,-0.365
2372173,0.020,-0.335
2372174,0.040,-0.360
2372175,0.030,-0.380
2372176,0.035,-0.370
2372177,0.005,-0.365
2372178,0.015,-0.355
2372179,-0.015,-0.345
2372180,-0.015,-0.355
2372181,-0.005,-0.335
2372182,-0.010,-0.340
2372183,0.005,-0.310
2372184,0.010,-0.305
2372185,0.010,-0.300
2372186,0.010,-0.275
2372187,0.020,-0.285
2372188,0.010,-0.300
2372189,0.040,-0.300
2372190,0.020,-0.290
2372191,0.025,-0.300
2372192,0.015,-0.305
2372193,0.035,-0.305
2372194,0.030,-0.305
2372195,0.030,-0.285
2372196,0.045,-0.310
2372197,0.045,-0.300
2372198,0.050,-0.300
2372199,0.035,-0.320
2372200,0.030,-0.345
2372201,0.040,-0.370
2372202,0.060,-0.375
2372203,0.055,-0.360
2372204,0.050,-0.340
2372205,0.055,-0.325
2372206,0.040,-0.320
2372207,0.050,-0.320
2372208,0.060,-0.320
2372209,0.050,-0.335
2372210,0.070,-0.345
2372211,0.070,-0.335
2372212,0.025,-0.340
2372213,0.030,-0.310
2372214,0.000,-0.310
2372215,0.005,-0.320
2372216,0.000,-0.325
2372217,0.005,-0.320
2372218,-0.005,-0.305
2372219,-0.025,-0.305
2372220,-0.010,-0.305
2372221,-0.010,-0.305
2372222,-0.020,-0.310
2372223,-0.015,-0.300
2372224,-0.005,-0.275
2372225,-0.020,-0.290
2372226,-0.015,-0.315
2372227,-0.030,-0.325
2372228,-0.025,-0.340
2372229,-0.020,-0.370
2372230,-0.020,-0.405
2372231,-0.030,-0.375
2372232,-0.015,-0.370
2372233,-0.015,-0.395
2372234,-0.010,-0.380
2372235,-0.010,-0.375
2372236,0.000,-0.405
2372237,-0.010,-0.405
2372238,0.000,-0.385
2372239,0.000,-0.395
2372240,-0.035,-0.375
2372241,-0.025,-0.375
2372242,-0.030,-0.340
2372243,0.000,-0.335
2372244,0.005,-0.320
2372245,-0.005,-0.320
2372246,0.010,-0.315
2372247,0.040,-0.280
2372248,0.040,-0.220
2372249,0.015,-0.155
2372250,0.010,-0.080
2372251,0.035,0.065
2372252,0.055,0.260
2372253,0.125,0.505
2372254,0.180,0.660
2372255,0.115,0.820
2372256,-0.185,0.990
2372257,-0.655,1.215
2372258,-1.360,1.365
2372259,-1.980,1.390
2372260,-2.505,1.350
2372261,-2.785,1.280
2372262,-2.750,1.230
2372263,-2.615,1.140
2372264,-2.455,1.080
2372265,-2.325,0.945
2372266,-2.230,0.820
2372267,-2.090,0.690
2372268,-1.905,0.595
2372269,-1.790,0.495
2372270,-1.685,0.440
2372271,-1.555,0.245
2372272,-1.435,-0.055
2372273,-1.340,-0.380
2372274,-1.215,-0.575
2372275,-1.125,-0.640
2372276,-0.995,-0.650
2372277,-0.855,-0.585
2372278,-0.740,-0.555
2372279,-0.545,-0.530
2372280,-0.370,-0.510
2372281,-0.180,-0.485
2372282,0.025,-0.455
2372283,0.170,-0.445
2372284,0.280,-0.420
2372285,0.365,-0.400
2372286,0.405,-0.420
2372287,0.435,-0.405
2372288,0.465,-0.395
2372289,0.490,-0.405
2372290,0.510,-0.415
2372291,0.535,-0.400
2372292,0.550,-0.425
2372293,0.560,-0.425
2372294,0.600,-0.395
2372295,0.590,-0.420
2372296,0.615,-0.425
2372297,0.640,-0.445
2372298,0.655,-0.450
2372299,0.685,-0.430
2372300,0.680,-0.430
2372301,0.700,-0.430
2372302,0.725,-0.460
2372303,0.740,-0.450
2372304,0.735,-0.460
2372305,0.725,-0.465
2372306,0.725,-0.465
2372307,0.740,-0.435
2372308,0.735,-0.425
2372309,0.755,-0.420
2372310,0.750,-0.430
2372311,0.810,-0.420
2372312,0.820,-0.400
2372313,0.855,-0.395
2372314,0.870,-0.375
2372315,0.885,-0.340
2372316,0.935,-0.340
2372317,0.960,-0.345
2372318,0.990,-0.360
2372319,1.015,-0.340
2372320,1.000,-0.330
2372321,1.000,-0.315
2372322,1.000,-0.280
2372323,0.980,-0.260
2372324,0.965,-0.225
2372325,0.920,-0.220
2372326,0.885,-0.215
2372327,0.830,-0.210
2372328,0.815,-0.185
2372329,0.780,-0.160
2372330,0.760,-0.160
2372331,0.700,-0.160
2372332,0.630,-0.190
2372333,0.585,-0.215
2372334,0.550,-0.255
2372335,0.480,-0.235
2372336,0.425,-0.240
2372337,0.365,-0.250
2372338,0.340,-0.305
2372339,0.295,-0.340
2372340,0.280,-0.330
2372341,0.240,-0.360
2372342,0.215,-0.385
2372343,0.175,-0.385
2372344,0.175,-0.370
2372345,0.155,-0.370
2372346,0.100,-0.385
2372347,0.075,-0.395
2372348,0.050,-0.395
2372349,0.025,-0.350
2372350,0.025,-0.350
2372351,-0.005,-0.340
2372352,-0.020,-0.340
2372353,-0.015,-0.340
2372354,-0.015,-0.315
2372355,-0.035,-0.310
2372356,-0.005,-0.315
2372357,0.005,-0.330
2372358,0.050,-0.310
2372359,0.050,-0.305
2372360,0.040,-0.300
2372361,0.085,-0.290
2372362,0.090,-0.300
2372363,0.115,-0.290
2372364,0.100,-0.295
2372365,0.105,-0.295
2372366,0.110,-0.300
2372367,0.120,-0.280
2372368,0.120,-0.320
2372369,0.145,-0.300
2372370,0.140,-0.340
2372371,0.125,-0.340
2372372,0.115,-0.360
2372373,0.115,-0.370
2372374,0.105,-0.340
2372375,0.095,-0.355
2372376,0.095,-0.360
2372377,0.110,-0.360
2372378,0.090,-0.380
2372379,0.095,-0.375
2372380,0.085,-0.390
2372381,0.075,-0.375
2372382,0.075,-0.365
2372383,0.070,-0.365
2372384,0.060,-0.340
2372385,0.055,-0.345
2372386,0.055,-0.325
2372387,0.075,-0.345
2372388,0.095,-0.325
2372389,0.075,-0.320
2372390,0.090,-0.320
2372391,0.065,-0.320
2372392,0.035,-0.325
2372393,0.000,-0.345
2372394,-0.020,-0.345
2372395,-0.030,-0.365
2372396,-0.060,-0.360
2372397,-0.080,-0.350
2372398,-0.115,-0.360
2372399,-0.115,-0.370
2372400,-0.140,-0.395
2372401,-0.150,-0.385
2372402,-0.150,-0.395
2372403,-0.140,-0.405
2372404,-0.150,-0.400
2372405,-0.135,-0.435
2372406,-0.135,-0.440
2372407,-0.125,-0.430
2372408,-0.135,-0.435
2372409,-0.155,-0.455
2372410,-0.160,-0.445
2372411,-0.160,-0.420
2372412,-0.150,-0.425
2372413,-0.160,-0.425
2372414,-0.160,-0.410
2372415,-0.180,-0.400
2372416,-0.175,-0.395
2372417,-0.185,-0.400
2372418,-0.205,-0.355
2372419,-0.185,-0.350
2372420,-0.150,-0.370
2372421,-0.130,-0.355
2372422,-0.115,-0.355
2372423,-0.110,-0.355
2372424,-0.100,-0.355
2372425,-0.075,-0.315
2372426,-0.085,-0.320
2372427,-0.095,-0.305
2372428,-0.100,-0.295
2372429,-0.085,-0.295
2372430,-0.080,-0.315
2372431,-0.075,-0.305
2372432,-0.045,-0.280
2372433,-0.030,-0.270
2372434,-0.060,-0.285
2372435,-0.050,-0.300
2372436,-0.045,-0.285
2372437,-0.065,-0.265
2372438,-0.065,-0.280
2372439,-0.095,-0.290
2372440,-0.130,-0.310
2372441,-0.150,-0.325
2372442,-0.125,-0.375
2372443,-0.130,-0.375
2372444,-0.170,-0.390
2372445,-0.185,-0.375
2372446,-0.180,-0.360
2372447,-0.180,-0.355
2372448,-0.195,-0.385
2372449,-0.185,-0.335
2372450,-0.180,-0.280
2372451,-0.175,-0.150
2372452,-0.180,0.055
2372453,-0.150,0.280
2372454,-0.080,0.585
2372455,0.000,0.800
2372456,0.010,0.970
2372457,-0.205,1.090
2372458,-0.590,1.220
2372459,-1.140,1.375
2372460,-1.755,1.440
2372461,-2.270,1.410
2372462,-2.670,1.355
2372463,-2.860,1.275
2372464,-2.800,1.175
2372465,-2.625,1.065
2372466,-2.420,0.965
2372467,-2.275,0.820
2372468,-2.180,0.705
2372469,-2.045,0.635
2372470,-1.880,0.560
2372471,-1.785,0.470
2372472,-1.690,0.425
2372473,-1.585,0.210
2372474,-1.505,-0.090
2372475,-1.425,-0.440
2372476,-1.360,-0.605
2372477,-1.260,-0.675
2372478,-1.140,-0.705
2372479,-0.995,-0.710
2372480,-0.875,-0.680
2372481,-0.705,-0.685
2372482,-0.555,-0.650
2372483,-0.370,-0.605
2372484,-0.235,-0.610
2372485,-0.080,-0.605
2372486,0.005,-0.590
2372487,0.085,-0.620
2372488,0.115,-0.630
2372489,0.160,-0.605
2372490,0.185,-0.595
2372491,0.195,-0.550
2372492,0.215,-0.550
2372493,0.250,-0.530
2372494,0.270,-0.530
2372495,0.295,-0.490
2372496,0.320,-0.490
2372497,0.320,-0.460
2372498,0.335,-0.455
2372499,0.360,-0.435
2372500,0.390,-0.425
2372501,0.410,-0.425
2372502,0.430,-0.405
2372503,0.465,-0.385
2372504,0.480,-0.365
2372505,0.520,-0.385
2372506,0.520,-0.360
2372507,0.550,-0.330
2372508,0.580,-0.330
2372509,0.615,-0.305
2372510,0.645,-0.290
2372511,0.665,-0.285
2372512,0.710,-0.290
2372513,0.750,-0.305
2372514,0.775,-0.320
2372515,0.790,-0.355
2372516,0.800,-0.365
2372517,0.805,-0.340
2372518,0.790,-0.335
2372519,0.800,-0.320
2372520,0.775,-0.305
2372521,0.775,-0.245
2372522,0.785,-0.250
2372523,0.800,-0.265
2372524,0.765,-0.260
2372525,0.750,-0.245
2372526,0.745,-0.230
2372527,0.730,-0.225
2372528,0.695,-0.205
2372529,0.645,-0.140
2372530,0.595,-0.110
2372531,0.590,-0.115
2372532,0.535,-0.095
2372533,0.505,-0.070
2372534,0.465,-0.065
2372535,0.435,-0.105
2372536,0.360,-0.145
2372537,0.315,-0.145
2372538,0.280,-0.150
2372539,0.270,-0.170
2372540,0.240,-0.220
2372541,0.180,-0.210
2372542,0.140,-0.210
2372543,0.130,-0.200
2372544,0.095,-0.200
2372545,0.070,-0.235
2372546,0.050,-0.240
2372547,0.030,-0.220
2372548,0.010,-0.220
2372549,0.035,-0.215
2372550,0.040,-0.205
2372551,0.010,-0.195
2372552,0.000,-0.215
2372553,0.035,-0.240
2372554,0.000,-0.280
2372555,0.020,-0.305
2372556,0.030,-0.290
2372557,0.045,-0.310
2372558,0.020,-0.310
2372559,0.010,-0.320
2372560,0.040,-0.320
2372561,0.025,-0.370
2372562,0.000,-0.390
2372563,-0.060,-0.390
2372564,-0.095,-0.375
2372565,-0.120,-0.355
2372566,-0.085,-0.375
2372567,-0.085,-0.360
2372568,-0.105,-0.360
2372569,-0.150,-0.360
2372570,-0.170,-0.350
2372571,-0.190,-0.345
2372572,-0.180,-0.350
2372573,-0.190,-0.355
2372574,-0.190,-0.345
2372575,-0.205,-0.365
2372576,-0.175,-0.335
2372577,-0.170,-0.300
2372578,-0.180,-0.300
2372579,-0.175,-0.320
2372580,-0.160,-0.345
2372581,-0.165,-0.355
2372582,-0.185,-0.360
2372583,-0.155,-0.345
2372584,-0.170,-0.355
2372585,-0.190,-0.355
2372586,-0.175,-0.310
2372587,-0.180,-0.260
2372588,-0.170,-0.180
2372589,-0.160,-0.025
2372590,-0.140,0.155
2372591,-0.095,0.430
2372592,-0.045,0.765
2372593,-0.010,1.005
2372594,-0.060,1.165
2372595,-0.260,1.290
2372596,-0.590,1.395
2372597,-1.090,1.500
2372598,-1.675,1.510
2372599,-2.195,1.420
2372600,-2.590,1.340
2372601,-2.760,1.245
2372602,-2.685,1.120
2372603,-2.505,1.025
2372604,-2.365,0.895
2372605,-2.280,0.760
2372606,-2.175,0.670
2372607,-2.040,0.625
2372608,-1.910,0.575
2372609,-1.835,0.535
2372610,-1.710,0.495
2372611,-1.600,0.320
2372612,-1.510,-0.005
2372613,-1.445,-0.285
2372614,-1.375,-0.490
2372615,-1.275,-0.590
2372616,-1.155,-0.610
2372617,-1.040,-0.570
2372618,-0.875,-0.540
2372619,-0.705,-0.510
2372620,-0.550,-0.505
2372621,-0.380,-0.465
2372622,-0.215,-0.445
2372623,-0.060,-0.460
2372624,0.050,-0.455
2372625,0.105,-0.470
2372626,0.140,-0.435
2372627,0.190,-0.420
2372628,0.200,-0.415
2372629,0.240,-0.430
2372630,0.270,-0.405
2372631,0.275,-0.380
2372632,0.285,-0.410
2372633,0.310,-0.425
2372634,0.330,-0.460
2372635,0.325,-0.440
2372636,0.340,-0.430
2372637,0.360,-0.420
2372638,0.355,-0.425
2372639,0.350,-0.410
2372640,0.370,-0.375
2372641,0.390,-0.370
2372642,0.430,-0.365
2372643,0.455,-0.355
2372644,0.480,-0.360
2372645,0.530,-0.370
2372646,0.545,-0.365
2372647,0.585,-0.370
2372648,0.605,-0.340
2372649,0.650,-0.340
2372650,0.670,-0.320
2372651,0.720,-0.345
2372652,0.725,-0.325
2372653,0.750,-0.315
2372654,0.800,-0.330
2372655,0.785,-0.325
2372656,0.800,-0.340
2372657,0.800,-0.305
2372658,0.780,-0.310
2372659,0.760,-0.310
2372660,0.725,-0.290
2372661,0.705,-0.260
2372662,0.655,-0.260
2372663,0.635,-0.215
2372664,0.575,-0.210
2372665,0.555,-0.190
2372666,0.520,-0.190
2372667,0.440,-0.205
2372668,0.415,-0.185
2372669,0.405,-0.180
2372670,0.340,-0.160
2372671,0.305,-0.180
2372672,0.245,-0.205
2372673,0.200,-0.230
2372674,0.180,-0.245
2372675,0.120,-0.255
2372676,0.070,-0.270
2372677,0.010,-0.290
2372678,-0.030,-0.315
2372679,-0.030,-0.320
2372680,-0.030,-0.340
2372681,-0.060,-0.345
2372682,-0.065,-0.335
2372683,-0.075,-0.335
2372684,-0.105,-0.310
2372685,-0.090,-0.330
2372686,-0.100,-0.350
2372687,-0.095,-0.335
2372688,-0.085,-0.335
2372689,-0.090,-0.335
2372690,-0.100,-0.305
2372691,-0.085,-0.320
2372692,-0.105,-0.270
2372693,-0.075,-0.250
2372694,-0.075,-0.265
2372695,-0.090,-0.285
2372696,-0.075,-0.315
2372697,-0.080,-0.310
2372698,-0.080,-0.295
2372699,-0.070,-0.305
2372700,-0.080,-0.315
2372701,-0.055,-0.295
2372702,-0.055,-0.280
2372703,-0.055,-0.275
2372704,-0.055,-0.275
2372705,-0.045,-0.270
2372706,-0.060,-0.275
2372707,-0.055,-0.290
2372708,-0.080,-0.305
2372709,-0.075,-0.315
2372710,-0.130,-0.335
2372711,-0.145,-0.355
2372712,-0.145,-0.385
2372713,-0.170,-0.380
2372714,-0.165,-0.340
2372715,-0.195,-0.335
2372716,-0.200,-0.370
2372717,-0.210,-0.365
2372718,-0.220,-0.340
2372719,-0.170,-0.335
2372720,-0.155,-0.315
2372721,-0.150,-0.310
2372722,-0.135,-0.325
2372723,-0.130,-0.305
2372724,-0.140,-0.315
2372725,-0.120,-0.300
2372726,-0.145,-0.310
2372727,-0.120,-0.290
2372728,-0.125,-0.310
2372729,-0.095,-0.295
2372730,-0.125,-0.285
2372731,-0.115,-0.260
2372732,-0.115,-0.270
2372733,-0.085,-0.285
2372734,-0.075,-0.265
2372735,-0.080,-0.255
2372736,-0.100,-0.270
2372737,-0.105,-0.255
2372738,-0.105,-0.240
2372739,-0.110,-0.235
2372740,-0.095,-0.235
2372741,-0.115,-0.235
2372742,-0.110,-0.250
2372743,-0.110,-0.290
2372744,-0.095,-0.300
2372745,-0.080,-0.340
2372746,-0.080,-0.320
2372747,-0.095,-0.345
2372748,-0.100,-0.335
2372749,-0.105,-0.345
2372750,-0.100,-0.355
2372751,-0.105,-0.355
2372752,-0.120,-0.350
2372753,-0.170,-0.365
2372754,-0.225,-0.385
2372755,-0.245,-0.370
2372756,-0.230,-0.370
2372757,-0.260,-0.415
2372758,-0.235,-0.430
2372759,-0.240,-0.395
2372760,-0.240,-0.345
2372761,-0.225,-0.350
2372762,-0.240,-0.355
2372763,-0.200,-0.350
2372764,-0.160,-0.350
2372765,-0.135,-0.335
2372766,-0.145,-0.350
2372767,-0.135,-0.345
2372768,-0.120,-0.340
2372769,-0.110,-0.310
2372770,-0.110,-0.320
2372771,-0.120,-0.345
2372772,-0.115,-0.335
2372773,-0.115,-0.340
2372774,-0.120,-0.330
2372775,-0.125,-0.330
2372776,-0.115,-0.315
2372777,-0.105,-0.290
2372778,-0.100,-0.290
2372779,-0.115,-0.310
2372780,-0.105,-0.300
2372781,-0.100,-0.315
2372782,-0.090,-0.325
2372783,-0.080,-0.320
2372784,-0.105,-0.320
2372785,-0.095,-0.340
2372786,-0.070,-0.335
2372787,-0.085,-0.320
2372788,-0.080,-0.325
2372789,-0.065,-0.320
2372790,-0.060,-0.315
2372791,-0.060,-0.300
2372792,-0.075,-0.315
2372793,-0.050,-0.290
2372794,-0.025,-0.310
2372795,-0.035,-0.300
2372796,-0.045,-0.280
2372797,-0.040,-0.270
2372798,-0.045,-0.255
2372799,-0.085,-0.225
2372800,-0.105,-0.170
2372801,-0.110,-0.045
2372802,-0.095,0.145
2372803,-0.090,0.445
2372804,-0.035,0.730
2372805,-0.025,0.900
2372806,-0.170,1.020
2372807,-0.470,1.160
2372808,-0.980,1.315
2372809,-1.600,1.415
2372810,-2.170,1.425
2372811,-2.615,1.380
2372812,-2.845,1.330
2372813,-2.780,1.280
2372814,-2.570,1.180
2372815,-2.405,1.120
2372816,-2.275,1.020
2372817,-2.125,0.940
2372818,-1.955,0.890
2372819,-1.815,0.830
2372820,-1.685,0.800
2372821,-1.575,0.720
2372822,-1.460,0.525
2372823,-1.345,0.140
2372824,-1.240,-0.245
2372825,-1.155,-0.510
2372826,-1.080,-0.645
2372827,-0.965,-0.690
2372828,-0.850,-0.645
2372829,-0.740,-0.590
2372830,-0.545,-0.580
2372831,-0.375,-0.555
2372832,-0.175,-0.555
2372833,0.000,-0.520
2372834,0.150,-0.500
2372835,0.250,-0.520
2372836,0.345,-0.540
2372837,0.395,-0.495
2372838,0.410,-0.480
2372839,0.420,-0.520
2372840,0.380,-0.510
2372841,0.390,-0.515
2372842,0.400,-0.465
2372843,0.420,-0.425
2372844,0.390,-0.440
2372845,0.415,-0.435
2372846,0.415,-0.445
2372847,0.475,-0.450
2372848,0.480,-0.460
2372849,0.510,-0.440
2372850,0.540,-0.405
2372851,0.575,-0.420
2372852,0.585,-0.425
2372853,0.615,-0.450
2372854,0.650,-0.425
2372855,0.660,-0.445
2372856,0.695,-0.470
2372857,0.730,-0.480
2372858,0.730,-0.470
2372859,0.765,-0.485
2372860,0.775,-0.485
2372861,0.820,-0.460
2372862,0.855,-0.440
2372863,0.875,-0.450
2372864,0.885,-0.470
2372865,0.925,-0.460
2372866,0.945,-0.440
2372867,1.010,-0.440
2372868,1.005,-0.440
2372869,1.015,-0.415
2372870,1.035,-0.380
2372871,1.040,-0.395
2372872,1.035,-0.370
2372873,1.000,-0.340
2372874,1.000,-0.305
2372875,0.955,-0.280
2372876,0.895,-0.290
2372877,0.865,-0.260
2372878,0.805,-0.240
2372879,0.750,-0.170
2372880,0.675,-0.135
2372881,0.625,-0.110
2372882,0.575,-0.125
2372883,0.520,-0.120
2372884,0.465,-0.115
2372885,0.390,-0.125
2372886,0.335,-0.155
2372887,0.290,-0.160
2372888,0.275,-0.170
2372889,0.225,-0.190
2372890,0.190,-0.205
2372891,0.185,-0.235
2372892,0.165,-0.240
2372893,0.130,-0.270
2372894,0.110,-0.260
2372895,0.095,-0.260
2372896,0.090,-0.285
2372897,0.070,-0.315
2372898,0.080,-0.320
2372899,0.070,-0.315
2372900,0.080,-0.325
2372901,0.050,-0.335
2372902,0.065,-0.350
2372903,0.080,-0.315
2372904,0.075,-0.365
2372905,0.060,-0.380
2372906,0.060,-0.390
2372907,0.060,-0.375
2372908,0.085,-0.360
2372909,0.080,-0.365
2372910,0.070,-0.400
2372911,0.080,-0.410
2372912,0.100,-0.410
2372913,0.100,-0.410
2372914,0.080,-0.385
2372915,0.060,-0.360
2372916,0.025,-0.340
2372917,-0.010,-0.340
2372918,0.000,-0.350
2372919,0.000,-0.305
2372920,0.000,-0.305
2372921,0.040,-0.300
2372922,0.030,-0.310
2372923,0.040,-0.290
2372924,0.050,-0.305
2372925,0.045,-0.310
2372926,0.060,-0.310
2372927,0.065,-0.320
2372928,0.080,-0.330
2372929,0.070,-0.330
2372930,0.055,-0.295
2372931,0.070,-0.335
2372932,0.070,-0.360
2372933,0.060,-0.370
2372934,0.040,-0.370
2372935,0.060,-0.360
2372936,0.045,-0.340
2372937,0.045,-0.325
2372938,0.025,-0.295
2372939,0.025,-0.220
2372940,0.050,-0.120
2372941,0.065,0.040
2372942,0.100,0.265
2372943,0.215,0.510
2372944,0.240,0.655
2372945,0.090,0.825
2372946,-0.295,1.040
2372947,-0.960,1.240
2372948,-1.665,1.355
2372949,-2.270,1.370
2372950,-2.665,1.335
2372951,-2.765,1.280
2372952,-2.635,1.200
2372953,-2.470,1.115
2372954,-2.305,1.010
2372955,-2.200,0.850
2372956,-2.135,0.735
2372957,-1.980,0.650
2372958,-1.850,0.570
2372959,-1.725,0.535
2372960,-1.600,0.400
2372961,-1.490,0.115
2372962,-1.370,-0.215
2372963,-1.275,-0.415
2372964,-1.170,-0.520
2372965,-1.070,-0.590
2372966,-0.925,-0.565
2372967,-0.765,-0.545
2372968,-0.565,-0.570
2372969,-0.380,-0.585
2372970,-0.190,-0.565
2372971,0.010,-0.570
2372972,0.130,-0.555
2372973,0.255,-0.565
2372974,0.315,-0.530
2372975,0.355,-0.510
2372976,0.395,-0.490
2372977,0.420,-0.500
2372978,0.455,-0.475
2372979,0.495,-0.455
2372980,0.525,-0.445
2372981,0.560,-0.440
2372982,0.585,-0.435
2372983,0.630,-0.425
2372984,0.665,-0.385
2372985,0.675,-0.355
2372986,0.675,-0.340
2372987,0.685,-0.330
2372988,0.720,-0.335
2372989,0.760,-0.370
2372990,0.790,-0.365
2372991,0.805,-0.375
2372992,0.805,-0.370
2372993,0.805,-0.370
2372994,0.810,-0.385
2372995,0.810,-0.445
2372996,0.790,-0.435
2372997,0.795,-0.450
2372998,0.810,-0.465
2372999,0.840,-0.470
2373000,0.860,-0.470
2373001,0.855,-0.480
2373002,0.895,-0.485
2373003,0.900,-0.480
2373004,0.930,-0.470
2373005,0.925,-0.465
2373006,0.910,-0.440
2373007,0.915,-0.415
2373008,0.930,-0.415
2373009,0.885,-0.380
2373010,0.880,-0.390
2373011,0.850,-0.370
2373012,0.825,-0.330
2373013,0.775,-0.310
2373014,0.760,-0.305
2373015,0.710,-0.275
2373016,0.655,-0.270
2373017,0.620,-0.250
2373018,0.575,-0.230
2373019,0.520,-0.250
2373020,0.475,-0.260
2373021,0.420,-0.260
2373022,0.360,-0.265
2373023,0.310,-0.265
2373024,0.310,-0.240
2373025,0.305,-0.255
2373026,0.295,-0.255
2373027,0.280,-0.265
2373028,0.270,-0.265
2373029,0.250,-0.275
2373030,0.215,-0.275
2373031,0.200,-0.270
2373032,0.160,-0.290
2373033,0.120,-0.290
2373034,0.120,-0.285
2373035,0.105,-0.275
2373036,0.090,-0.290
2373037,0.075,-0.290
2373038,0.055,-0.280
2373039,0.075,-0.285
2373040,0.110,-0.290
2373041,0.070,-0.310
2373042,0.070,-0.310
2373043,0.075,-0.325
2373044,0.095,-0.300
2373045,0.110,-0.320
2373046,0.095,-0.290
2373047,0.120,-0.325
2373048,0.110,-0.345
2373049,0.125,-0.330
2373050,0.120,-0.300
2373051,0.110,-0.280
2373052,0.115,-0.260
2373053,0.140,-0.260
2373054,0.130,-0.285
2373055,0.130,-0.300
2373056,0.150,-0.285
2373057,0.120,-0.270
2373058,0.120,-0.230
2373059,0.115,-0.220
2373060,0.115,-0.230
2373061,0.130,-0.250
2373062,0.150,-0.230
2373063,0.175,-0.230
2373064,0.155,-0.235
2373065,0.160,-0.240
2373066,0.130,-0.220
2373067,0.145,-0.200
2373068,0.095,-0.230
2373069,0.090,-0.280
2373070,0.080,-0.280
2373071,0.030,-0.295
2373072,-0.010,-0.300
2373073,0.000,-0.305
2373074,-0.020,-0.310
2373075,-0.030,-0.280
2373076,-0.020,-0.320
2373077,-0.020,-0.320
2373078,-0.035,-0.310
2373079,-0.030,-0.295
2373080,-0.005,-0.310
2373081,0.005,-0.300
2373082,0.020,-0.285
2373083,0.040,-0.290
2373084,0.060,-0.285
2373085,0.035,-0.280
2373086,0.070,-0.280
2373087,0.065,-0.270
2373088,0.090,-0.295
2373089,0.090,-0.295
2373090,0.085,-0.270
2373091,0.125,-0.225
2373092,0.125,-0.210
2373093,0.115,-0.185
2373094,0.100,-0.190
2373095,0.130,-0.195
2373096,0.140,-0.210
2373097,0.140,-0.200
2373098,0.185,-0.180
2373099,0.155,-0.200
2373100,0.160,-0.220
2373101,0.175,-0.200
2373102,0.170,-0.210
2373103,0.150,-0.210
2373104,0.165,-0.210
2373105,0.145,-0.210
2373106,0.135,-0.230
2373107,0.140,-0.240
2373108,0.100,-0.245
2373109,0.060,-0.270
2373110,0.060,-0.260
2373111,0.040,-0.290
2373112,0.015,-0.300
2373113,-0.010,-0.330
2373114,0.005,-0.340
2373115,-0.020,-0.305
2373116,-0.040,-0.270
2373117,-0.060,-0.270
2373118,-0.040,-0.280
2373119,-0.020,-0.280
2373120,0.005,-0.275
2373121,0.030,-0.240
2373122,0.035,-0.220
2373123,0.040,-0.215
2373124,0.055,-0.240
2373125,0.050,-0.270
2373126,0.040,-0.260
2373127,0.050,-0.240
2373128,0.070,-0.225
2373129,0.070,-0.190
2373130,0.070,-0.160
2373131,0.090,-0.185
2373132,0.095,-0.170
2373133,0.120,-0.180
2373134,0.135,-0.180
2373135,0.150,-0.170
2373136,0.130,-0.175
2373137,0.115,-0.165
2373138,0.130,-0.165
2373139,0.125,-0.170
2373140,0.125,-0.145
2373141,0.140,-0.165
2373142,0.145,-0.160
2373143,0.155,-0.200
2373144,0.160,-0.235
2373145,0.150,-0.240
2373146,0.135,-0.250
2373147,0.105,-0.260
2373148,0.050,-0.280
2373149,0.035,-0.270
2373150,0.030,-0.260
2373151,0.005,-0.285
2373152,-0.020,-0.250
2373153,-0.020,-0.110
2373154,-0.005,0.050
2373155,0.005,0.270
2373156,0.080,0.480
2373157,0.160,0.650
2373158,0.070,0.755
