'sample interval','ECG1','ECG2'
'0.004 sec','mV','mV'
2817500,0.155,0.255
2817501,0.150,0.200
2817502,0.165,0.230
2817503,0.145,0.210
2817504,0.120,0.200
2817505,0.120,0.175
2817506,0.100,0.180
2817507,0.120,0.175
2817508,0.100,0.185
2817509,0.105,0.165
2817510,0.100,0.175
2817511,0.085,0.190
2817512,0.120,0.180
2817513,0.105,0.180
2817514,0.100,0.200
2817515,0.130,0.260
2817516,0.140,0.310
2817517,0.155,0.395
2817518,0.165,0.580
2817519,0.200,0.785
2817520,0.240,1.020
2817521,0.290,1.180
2817522,0.125,1.430
2817523,-0.310,1.710
2817524,-1.000,1.980
2817525,-1.670,2.145
2817526,-2.250,2.245
2817527,-2.670,2.245
2817528,-2.685,2.240
2817529,-2.540,2.180
2817530,-2.325,2.165
2817531,-2.180,2.075
2817532,-2.055,1.940
2817533,-1.895,1.865
2817534,-1.695,1.810
2817535,-1.540,1.780
2817536,-1.410,1.675
2817537,-1.275,1.445
2817538,-1.125,0.990
2817539,-1.000,0.455
2817540,-0.910,0.070
2817541,-0.835,-0.145
2817542,-0.705,-0.205
2817543,-0.605,-0.130
2817544,-0.460,-0.080
2817545,-0.295,-0.050
2817546,-0.085,-0.040
2817547,0.105,0.005
2817548,0.260,-0.005
2817549,0.370,-0.005
2817550,0.505,0.000
2817551,0.540,0.020
2817552,0.600,0.035
2817553,0.630,0.035
2817554,0.695,0.060
2817555,0.730,0.090
2817556,0.735,0.085
2817557,0.790,0.060
2817558,0.810,0.080
2817559,0.825,0.115
2817560,0.835,0.150
2817561,0.875,0.180
2817562,0.905,0.180
2817563,0.940,0.210
2817564,0.960,0.225
2817565,1.025,0.235
2817566,1.030,0.240
2817567,1.060,0.230
2817568,1.125,0.225
2817569,1.155,0.210
2817570,1.165,0.215
2817571,1.205,0.240
2817572,1.250,0.225
2817573,1.260,0.200
2817574,1.305,0.220
2817575,1.330,0.225
2817576,1.345,0.225
2817577,1.360,0.195
2817578,1.380,0.170
2817579,1.365,0.195
2817580,1.325,0.200
2817581,1.300,0.190
2817582,1.265,0.205
2817583,1.215,0.230
2817584,1.145,0.270
2817585,1.060,0.300
2817586,1.025,0.335
2817587,1.005,0.340
2817588,0.940,0.355
2817589,0.870,0.425
2817590,0.845,0.465
2817591,0.785,0.485
2817592,0.755,0.495
2817593,0.705,0.505
2817594,0.645,0.510
2817595,0.615,0.495
2817596,0.580,0.480
2817597,0.530,0.475
2817598,0.495,0.495
2817599,0.430,0.475
2817600,0.430,0.480
2817601,0.415,0.470
2817602,0.405,0.475
2817603,0.395,0.495
2817604,0.390,0.490
2817605,0.375,0.495
2817606,0.375,0.525
2817607,0.365,0.510
2817608,0.360,0.490
2817609,0.355,0.490
2817610,0.370,0.500
2817611,0.370,0.475
2817612,0.365,0.465
2817613,0.355,0.450
2817614,0.370,0.450
2817615,0.305,0.410
2817616,0.275,0.395
2817617,0.255,0.370
2817618,0.255,0.350
2817619,0.240,0.315
2817620,0.205,0.275
2817621,0.190,0.260
2817622,0.190,0.255
2817623,0.180,0.240
2817624,0.155,0.205
2817625,0.155,0.210
2817626,0.180,0.185
2817627,0.160,0.190
2817628,0.150,0.175
2817629,0.155,0.190
2817630,0.200,0.175
2817631,0.195,0.170
2817632,0.195,0.175
2817633,0.175,0.185
2817634,0.190,0.175
2817635,0.175,0.190
2817636,0.175,0.195
2817637,0.200,0.225
2817638,0.210,0.225
2817639,0.205,0.225
2817640,0.225,0.195
2817641,0.220,0.240
2817642,0.235,0.255
2817643,0.250,0.270
2817644,0.240,0.240
2817645,0.255,0.260
2817646,0.240,0.270
2817647,0.265,0.265
2817648,0.245,0.275
2817649,0.250,0.290
2817650,0.265,0.305
2817651,0.255,0.275
2817652,0.255,0.270
2817653,0.265,0.280
2817654,0.255,0.290
2817655,0.225,0.280
2817656,0.190,0.280
2817657,0.190,0.275
2817658,0.160,0.280
2817659,0.140,0.270
2817660,0.120,0.290
2817661,0.115,0.265
2817662,0.110,0.245
2817663,0.120,0.220
2817664,0.110,0.215
2817665,0.075,0.190
2817666,0.100,0.175
2817667,0.075,0.170
2817668,0.055,0.160
2817669,0.065,0.180
2817670,0.075,0.195
2817671,0.095,0.220
2817672,0.070,0.210
2817673,0.075,0.220
2817674,0.095,0.230
2817675,0.100,0.255
2817676,0.105,0.260
2817677,0.105,0.245
2817678,0.095,0.250
2817679,0.110,0.260
2817680,0.120,0.240
2817681,0.120,0.260
2817682,0.115,0.260
2817683,0.110,0.285
2817684,0.135,0.300
2817685,0.150,0.305
2817686,0.145,0.285
2817687,0.145,0.295
2817688,0.140,0.270
2817689,0.150,0.275
2817690,0.165,0.290
2817691,0.160,0.285
2817692,0.155,0.305
2817693,0.190,0.320
2817694,0.195,0.315
2817695,0.190,0.350
2817696,0.175,0.360
2817697,0.200,0.360
2817698,0.220,0.390
2817699,0.210,0.435
2817700,0.185,0.605
2817701,0.190,0.775
2817702,0.235,0.985
2817703,0.250,1.130
2817704,0.120,1.255
2817705,-0.180,1.430
2817706,-0.705,1.620
2817707,-1.420,1.805
2817708,-2.055,1.920
2817709,-2.560,1.900
2817710,-2.800,1.865
2817711,-2.740,1.820
2817712,-2.600,1.745
2817713,-2.415,1.735
2817714,-2.310,1.635
2817715,-2.200,1.525
2817716,-2.005,1.450
2817717,-1.815,1.410
2817718,-1.685,1.375
2817719,-1.545,1.315
2817720,-1.425,1.070
2817721,-1.260,0.650
2817722,-1.105,0.230
2817723,-1.040,-0.050
2817724,-0.900,-0.155
2817725,-0.745,-0.145
2817726,-0.585,-0.080
2817727,-0.405,-0.050
2817728,-0.205,-0.020
2817729,0.000,0.000
2817730,0.195,0.030
2817731,0.355,0.030
2817732,0.455,0.010
2817733,0.540,0.030
2817734,0.595,0.030
2817735,0.625,0.025
2817736,0.640,0.010
2817737,0.665,0.020
2817738,0.690,0.040
2817739,0.730,0.055
2817740,0.730,0.055
2817741,0.780,0.070
2817742,0.760,0.075
2817743,0.770,0.065
2817744,0.785,0.075
2817745,0.810,0.100
2817746,0.820,0.100
2817747,0.830,0.085
2817748,0.825,0.085
2817749,0.820,0.085
2817750,0.860,0.090
2817751,0.865,0.070
2817752,0.900,0.095
2817753,0.925,0.120
2817754,0.955,0.100
2817755,0.960,0.120
2817756,1.005,0.115
2817757,1.045,0.115
2817758,1.080,0.100
2817759,1.100,0.110
2817760,1.120,0.135
2817761,1.140,0.140
2817762,1.140,0.135
2817763,1.165,0.145
2817764,1.130,0.175
2817765,1.140,0.220
2817766,1.100,0.260
2817767,1.100,0.255
2817768,1.035,0.280
2817769,1.015,0.340
2817770,0.935,0.330
2817771,0.900,0.350
2817772,0.845,0.355
2817773,0.800,0.380
2817774,0.715,0.375
2817775,0.670,0.370
2817776,0.635,0.340
2817777,0.620,0.335
2817778,0.540,0.300
2817779,0.485,0.295
2817780,0.450,0.295
2817781,0.390,0.270
2817782,0.375,0.265
2817783,0.340,0.245
2817784,0.335,0.245
2817785,0.335,0.255
2817786,0.310,0.205
2817787,0.280,0.205
2817788,0.270,0.175
2817789,0.285,0.190
2817790,0.275,0.170
2817791,0.270,0.210
2817792,0.260,0.225
2817793,0.270,0.235
2817794,0.285,0.255
2817795,0.295,0.235
2817796,0.315,0.245
2817797,0.355,0.245
2817798,0.350,0.230
2817799,0.355,0.210
2817800,0.345,0.225
2817801,0.290,0.205
2817802,0.260,0.200
2817803,0.220,0.190
2817804,0.210,0.175
2817805,0.205,0.160
2817806,0.180,0.160
2817807,0.170,0.145
2817808,0.210,0.125
2817809,0.190,0.140
2817810,0.200,0.135
2817811,0.195,0.105
2817812,0.210,0.100
2817813,0.200,0.110
2817814,0.205,0.080
2817815,0.210,0.075
2817816,0.200,0.065
2817817,0.190,0.040
2817818,0.175,0.025
2817819,0.170,0.025
2817820,0.145,0.000
2817821,0.185,-0.060
2817822,0.155,-0.115
2817823,0.135,-0.160
2817824,0.140,-0.160
2817825,0.140,-0.175
2817826,0.125,-0.165
2817827,0.120,-0.125
2817828,0.085,-0.100
2817829,0.105,-0.085
2817830,0.105,-0.100
2817831,0.110,-0.150
2817832,0.115,-0.150
2817833,0.105,-0.110
2817834,0.110,-0.075
2817835,0.105,-0.075
2817836,0.110,-0.065
2817837,0.110,-0.045
2817838,0.130,-0.045
2817839,0.145,-0.050
2817840,0.150,-0.070
2817841,0.175,-0.030
2817842,0.165,0.005
2817843,0.170,-0.015
2817844,0.170,-0.025
2817845,0.165,-0.025
2817846,0.150,-0.010
2817847,0.120,0.000
2817848,0.100,0.005
2817849,0.095,0.000
2817850,0.070,0.000
2817851,0.075,-0.010
2817852,0.080,-0.025
2817853,0.060,-0.005
2817854,0.075,-0.010
2817855,0.065,-0.015
2817856,0.040,-0.035
2817857,0.055,-0.060
2817858,0.060,-0.055
2817859,0.050,-0.075
2817860,0.030,-0.085
2817861,0.010,-0.135
2817862,0.010,-0.130
2817863,0.000,-0.125
2817864,0.000,-0.115
2817865,-0.005,-0.120
2817866,0.010,-0.055
2817867,0.005,0.040
2817868,0.030,0.190
2817869,0.015,0.405
2817870,0.045,0.670
2817871,0.150,0.930
2817872,0.100,1.115
2817873,-0.125,1.285
2817874,-0.495,1.430
2817875,-1.080,1.610
2817876,-1.750,1.760
2817877,-2.310,1.775
2817878,-2.750,1.805
2817879,-2.920,1.740
2817880,-2.860,1.640
2817881,-2.655,1.530
2817882,-2.435,1.415
2817883,-2.320,1.275
2817884,-2.215,1.170
2817885,-2.025,1.110
2817886,-1.875,1.070
2817887,-1.730,1.065
2817888,-1.610,0.945
2817889,-1.480,0.715
2817890,-1.340,0.330
2817891,-1.225,-0.045
2817892,-1.120,-0.290
2817893,-0.995,-0.425
2817894,-0.865,-0.465
2817895,-0.705,-0.450
2817896,-0.555,-0.475
2817897,-0.385,-0.500
2817898,-0.215,-0.460
2817899,-0.050,-0.440
2817900,0.095,-0.445
2817901,0.220,-0.490
2817902,0.270,-0.505
2817903,0.305,-0.470
2817904,0.340,-0.490
2817905,0.350,-0.490
2817906,0.365,-0.500
2817907,0.390,-0.495
2817908,0.385,-0.495
2817909,0.405,-0.495
2817910,0.405,-0.470
2817911,0.425,-0.470
2817912,0.445,-0.450
2817913,0.445,-0.430
2817914,0.480,-0.415
2817915,0.515,-0.385
2817916,0.545,-0.355
2817917,0.565,-0.375
2817918,0.605,-0.410
2817919,0.635,-0.425
2817920,0.660,-0.390
2817921,0.670,-0.370
2817922,0.725,-0.370
2817923,0.745,-0.345
2817924,0.805,-0.320
2817925,0.840,-0.360
2817926,0.855,-0.365
2817927,0.895,-0.370
2817928,0.925,-0.365
2817929,0.960,-0.340
2817930,0.970,-0.335
2817931,0.980,-0.345
2817932,0.985,-0.345
2817933,1.000,-0.280
2817934,1.000,-0.280
2817935,1.005,-0.270
2817936,1.010,-0.255
2817937,0.975,-0.205
2817938,0.935,-0.180
2817939,0.890,-0.190
2817940,0.810,-0.160
2817941,0.760,-0.135
2817942,0.700,-0.115
2817943,0.615,-0.110
2817944,0.550,-0.100
2817945,0.500,-0.090
2817946,0.440,-0.105
2817947,0.375,-0.140
2817948,0.335,-0.170
2817949,0.260,-0.200
2817950,0.215,-0.205
2817951,0.170,-0.255
2817952,0.125,-0.240
2817953,0.075,-0.270
2817954,0.040,-0.285
2817955,0.015,-0.280
2817956,-0.020,-0.295
2817957,-0.030,-0.300
2817958,-0.030,-0.240
2817959,-0.040,-0.235
2817960,-0.035,-0.265
2817961,-0.035,-0.270
2817962,0.005,-0.295
2817963,0.015,-0.315
2817964,0.000,-0.275
2817965,0.000,-0.245
2817966,-0.020,-0.255
2817967,-0.035,-0.260
2817968,-0.025,-0.280
2817969,-0.015,-0.285
2817970,-0.015,-0.285
2817971,-0.020,-0.315
2817972,-0.010,-0.335
2817973,0.010,-0.350
2817974,0.030,-0.365
2817975,0.035,-0.370
2817976,0.030,-0.375
2817977,0.030,-0.395
2817978,0.045,-0.370
2817979,0.040,-0.380
2817980,0.060,-0.405
2817981,0.035,-0.425
2817982,0.015,-0.435
2817983,0.000,-0.440
2817984,-0.020,-0.460
2817985,-0.050,-0.495
2817986,-0.065,-0.485
2817987,-0.050,-0.485
2817988,-0.105,-0.505
2817989,-0.090,-0.525
2817990,-0.090,-0.520
2817991,-0.100,-0.520
2817992,-0.095,-0.515
2817993,-0.115,-0.535
2817994,-0.115,-0.545
2817995,-0.120,-0.545
2817996,-0.105,-0.530
2817997,-0.090,-0.545
2817998,-0.130,-0.540
2817999,-0.140,-0.525
2818000,-0.120,-0.520
2818001,-0.120,-0.495
2818002,-0.125,-0.500
2818003,-0.120,-0.515
2818004,-0.140,-0.515
2818005,-0.150,-0.475
2818006,-0.145,-0.435
2818007,-0.150,-0.390
2818008,-0.130,-0.395
2818009,-0.105,-0.390
2818010,-0.100,-0.345
2818011,-0.080,-0.340
2818012,-0.075,-0.345
2818013,-0.050,-0.340
2818014,-0.020,-0.340
2818015,-0.035,-0.380
2818016,-0.040,-0.375
2818017,-0.040,-0.350
2818018,-0.040,-0.360
2818019,-0.025,-0.375
2818020,-0.020,-0.375
2818021,-0.005,-0.370
2818022,-0.015,-0.395
2818023,-0.020,-0.405
2818024,0.000,-0.395
2818025,-0.010,-0.380
2818026,-0.010,-0.340
2818027,-0.025,-0.260
2818028,-0.030,-0.135
2818029,-0.025,0.080
2818030,-0.015,0.370
2818031,0.000,0.640
2818032,-0.045,0.815
2818033,-0.260,0.960
2818034,-0.615,1.100
2818035,-1.185,1.225
2818036,-1.805,1.355
2818037,-2.370,1.370
2818038,-2.795,1.355
2818039,-3.020,1.280
2818040,-3.005,1.185
2818041,-2.885,1.040
2818042,-2.690,0.940
2818043,-2.590,0.835
2818044,-2.490,0.720
2818045,-2.355,0.605
2818046,-2.210,0.550
2818047,-2.085,0.575
2818048,-1.960,0.595
2818049,-1.855,0.490
2818050,-1.755,0.225
2818051,-1.640,-0.145
2818052,-1.515,-0.440
2818053,-1.390,-0.615
2818054,-1.240,-0.740
2818055,-1.050,-0.790
2818056,-0.880,-0.795
2818057,-0.725,-0.790
2818058,-0.550,-0.800
2818059,-0.365,-0.770
2818060,-0.165,-0.760
2818061,-0.025,-0.755
2818062,0.095,-0.780
2818063,0.185,-0.775
2818064,0.255,-0.770
2818065,0.300,-0.770
2818066,0.335,-0.785
2818067,0.375,-0.790
2818068,0.420,-0.765
2818069,0.440,-0.790
2818070,0.460,-0.795
2818071,0.510,-0.800
2818072,0.495,-0.810
2818073,0.515,-0.805
2818074,0.520,-0.810
2818075,0.520,-0.820
2818076,0.500,-0.830
2818077,0.505,-0.835
2818078,0.495,-0.830
2818079,0.515,-0.815
2818080,0.520,-0.825
2818081,0.520,-0.820
2818082,0.515,-0.830
2818083,0.550,-0.850
2818084,0.580,-0.845
2818085,0.590,-0.835
2818086,0.595,-0.865
2818087,0.635,-0.850
2818088,0.645,-0.840
2818089,0.685,-0.830
2818090,0.700,-0.845
2818091,0.735,-0.835
2818092,0.730,-0.795
2818093,0.745,-0.785
2818094,0.760,-0.710
2818095,0.760,-0.710
2818096,0.785,-0.710
2818097,0.800,-0.620
2818098,0.790,-0.585
2818099,0.780,-0.545
2818100,0.755,-0.515
2818101,0.755,-0.475
2818102,0.730,-0.445
2818103,0.675,-0.410
2818104,0.640,-0.385
2818105,0.575,-0.385
2818106,0.535,-0.395
2818107,0.485,-0.380
2818108,0.430,-0.380
2818109,0.375,-0.400
2818110,0.330,-0.450
2818111,0.305,-0.455
2818112,0.255,-0.470
2818113,0.225,-0.490
2818114,0.185,-0.550
2818115,0.140,-0.585
2818116,0.125,-0.580
2818117,0.110,-0.600
2818118,0.055,-0.615
2818119,-0.010,-0.615
2818120,-0.015,-0.615
2818121,-0.055,-0.615
2818122,-0.080,-0.640
2818123,-0.090,-0.660
2818124,-0.080,-0.645
2818125,-0.120,-0.640
2818126,-0.090,-0.665
2818127,-0.095,-0.640
2818128,-0.105,-0.640
2818129,-0.110,-0.620
2818130,-0.115,-0.620
2818131,-0.110,-0.640
2818132,-0.095,-0.640
2818133,-0.090,-0.645
2818134,-0.070,-0.660
2818135,-0.065,-0.650
2818136,-0.090,-0.625
2818137,-0.090,-0.600
2818138,-0.075,-0.580
2818139,-0.055,-0.585
2818140,-0.025,-0.585
2818141,0.005,-0.585
2818142,-0.015,-0.590
2818143,-0.010,-0.570
2818144,0.000,-0.620
2818145,0.015,-0.625
2818146,0.005,-0.630
2818147,0.015,-0.655
2818148,0.020,-0.660
2818149,0.000,-0.685
2818150,0.005,-0.700
2818151,0.020,-0.680
2818152,0.030,-0.700
2818153,0.020,-0.720
2818154,0.035,-0.720
2818155,0.015,-0.720
2818156,0.000,-0.725
2818157,-0.005,-0.745
2818158,0.000,-0.750
2818159,0.000,-0.775
2818160,0.010,-0.780
2818161,-0.010,-0.795
2818162,-0.020,-0.795
2818163,-0.050,-0.800
2818164,-0.055,-0.785
2818165,-0.040,-0.800
2818166,-0.050,-0.805
2818167,-0.050,-0.815
2818168,-0.035,-0.800
2818169,-0.065,-0.800
2818170,-0.070,-0.765
2818171,-0.095,-0.755
2818172,-0.060,-0.750
2818173,-0.100,-0.745
2818174,-0.115,-0.740
2818175,-0.085,-0.760
2818176,-0.095,-0.750
2818177,-0.120,-0.700
2818178,-0.140,-0.690
2818179,-0.140,-0.660
2818180,-0.115,-0.650
2818181,-0.100,-0.635
2818182,-0.090,-0.630
2818183,-0.100,-0.615
2818184,-0.075,-0.620
2818185,-0.085,-0.620
2818186,-0.075,-0.610
2818187,-0.060,-0.600
2818188,-0.035,-0.600
2818189,-0.040,-0.600
2818190,-0.055,-0.625
2818191,0.000,-0.605
2818192,0.020,-0.615
2818193,0.000,-0.655
2818194,0.000,-0.655
2818195,-0.020,-0.635
2818196,0.010,-0.655
2818197,-0.005,-0.660
2818198,0.000,-0.670
2818199,-0.035,-0.670
2818200,0.000,-0.680
2818201,-0.025,-0.685
2818202,-0.015,-0.730
2818203,0.005,-0.740
2818204,0.005,-0.750
2818205,0.000,-0.715
2818206,0.000,-0.735
2818207,-0.005,-0.735
2818208,0.005,-0.755
2818209,-0.025,-0.735
2818210,-0.015,-0.750
2818211,-0.030,-0.745
2818212,-0.025,-0.770
2818213,-0.050,-0.765
2818214,-0.075,-0.745
2818215,-0.085,-0.755
2818216,-0.105,-0.770
2818217,-0.100,-0.790
2818218,-0.115,-0.770
2818219,-0.140,-0.745
2818220,-0.180,-0.745
2818221,-0.180,-0.705
2818222,-0.180,-0.680
2818223,-0.180,-0.655
2818224,-0.140,-0.640
2818225,-0.135,-0.635
2818226,-0.130,-0.615
2818227,-0.095,-0.590
2818228,-0.080,-0.605
2818229,-0.065,-0.600
2818230,-0.015,-0.560
2818231,-0.040,-0.550
2818232,-0.030,-0.535
2818233,-0.025,-0.510
2818234,-0.015,-0.430
2818235,-0.015,-0.310
2818236,0.000,-0.130
2818237,0.065,0.080
2818238,0.130,0.300
2818239,0.095,0.465
2818240,-0.145,0.625
2818241,-0.575,0.845
2818242,-1.195,1.055
2818243,-1.815,1.215
2818244,-2.335,1.270
2818245,-2.690,1.255
2818246,-2.775,1.225
2818247,-2.710,1.175
2818248,-2.575,1.115
2818249,-2.380,1.060
2818250,-2.275,0.910
2818251,-2.155,0.840
2818252,-1.970,0.780
2818253,-1.810,0.745
2818254,-1.705,0.740
2818255,-1.575,0.625
2818256,-1.440,0.335
2818257,-1.295,-0.155
2818258,-1.175,-0.640
2818259,-1.085,-0.975
2818260,-0.985,-1.150
2818261,-0.855,-1.195
2818262,-0.775,-1.130
2818263,-0.665,-1.085
2818264,-0.475,-1.035
2818265,-0.265,-0.985
2818266,-0.070,-0.970
2818267,0.065,-0.970
2818268,0.200,-0.985
2818269,0.300,-0.985
2818270,0.340,-0.960
2818271,0.380,-0.940
2818272,0.390,-0.950
2818273,0.420,-0.925
2818274,0.440,-0.935
2818275,0.435,-0.930
2818276,0.470,-0.945
2818277,0.485,-0.940
2818278,0.525,-0.925
2818279,0.560,-0.925
2818280,0.565,-0.905
2818281,0.605,-0.910
2818282,0.620,-0.890
2818283,0.680,-0.880
2818284,0.675,-0.865
2818285,0.715,-0.885
2818286,0.750,-0.880
2818287,0.760,-0.910
2818288,0.795,-0.875
2818289,0.850,-0.870
2818290,0.900,-0.880
2818291,0.920,-0.890
2818292,0.960,-0.885
2818293,0.980,-0.885
2818294,1.030,-0.875
2818295,1.045,-0.880
2818296,1.085,-0.860
2818297,1.110,-0.830
2818298,1.120,-0.825
2818299,1.155,-0.835
2818300,1.145,-0.810
2818301,1.160,-0.800
2818302,1.170,-0.750
2818303,1.145,-0.700
2818304,1.100,-0.630
2818305,1.055,-0.575
2818306,1.080,-0.550
2818307,1.050,-0.530
2818308,1.015,-0.465
2818309,0.960,-0.450
2818310,0.930,-0.420
2818311,0.885,-0.430
2818312,0.815,-0.450
2818313,0.740,-0.430
2818314,0.690,-0.455
2818315,0.615,-0.495
2818316,0.570,-0.510
2818317,0.490,-0.540
2818318,0.420,-0.540
2818319,0.340,-0.575
2818320,0.280,-0.620
2818321,0.200,-0.610
2818322,0.170,-0.610
2818323,0.140,-0.650
2818324,0.130,-0.695
2818325,0.100,-0.700
2818326,0.090,-0.705
2818327,0.065,-0.730
2818328,0.075,-0.745
2818329,0.075,-0.750
2818330,0.075,-0.730
2818331,0.060,-0.720
2818332,0.080,-0.740
2818333,0.065,-0.750
2818334,0.085,-0.750
2818335,0.105,-0.730
2818336,0.090,-0.720
2818337,0.105,-0.715
2818338,0.125,-0.690
2818339,0.135,-0.665
2818340,0.130,-0.660
2818341,0.140,-0.710
2818342,0.175,-0.725
2818343,0.165,-0.705
2818344,0.180,-0.660
2818345,0.145,-0.660
2818346,0.185,-0.640
2818347,0.185,-0.615
2818348,0.225,-0.625
2818349,0.230,-0.650
2818350,0.240,-0.655
2818351,0.255,-0.625
2818352,0.245,-0.635
2818353,0.250,-0.650
2818354,0.250,-0.665
2818355,0.250,-0.645
2818356,0.250,-0.665
2818357,0.270,-0.690
2818358,0.260,-0.665
2818359,0.300,-0.670
2818360,0.270,-0.665
2818361,0.270,-0.680
2818362,0.235,-0.695
2818363,0.225,-0.705
2818364,0.195,-0.700
2818365,0.170,-0.715
2818366,0.170,-0.735
2818367,0.140,-0.745
2818368,0.130,-0.780
2818369,0.125,-0.785
2818370,0.105,-0.760
2818371,0.080,-0.765
2818372,0.070,-0.780
2818373,0.040,-0.750
2818374,0.055,-0.755
2818375,0.070,-0.775
2818376,0.075,-0.765
2818377,0.070,-0.740
2818378,0.080,-0.730
2818379,0.110,-0.725
2818380,0.095,-0.740
2818381,0.080,-0.750
2818382,0.105,-0.730
2818383,0.080,-0.710
2818384,0.085,-0.680
2818385,0.065,-0.675
2818386,0.085,-0.665
2818387,0.105,-0.605
2818388,0.120,-0.585
2818389,0.120,-0.585
2818390,0.165,-0.570
2818391,0.145,-0.580
2818392,0.165,-0.580
2818393,0.170,-0.560
2818394,0.165,-0.550
2818395,0.170,-0.550
2818396,0.175,-0.560
2818397,0.195,-0.570
2818398,0.220,-0.570
2818399,0.225,-0.610
2818400,0.230,-0.610
2818401,0.200,-0.630
2818402,0.215,-0.640
2818403,0.210,-0.640
2818404,0.195,-0.665
2818405,0.190,-0.655
2818406,0.140,-0.665
2818407,0.100,-0.665
2818408,0.090,-0.685
2818409,0.095,-0.690
2818410,0.085,-0.675
2818411,0.055,-0.665
2818412,0.040,-0.700
2818413,0.045,-0.670
2818414,0.040,-0.670
2818415,0.070,-0.680
2818416,0.035,-0.710
2818417,0.050,-0.700
2818418,0.065,-0.685
2818419,0.075,-0.680
2818420,0.055,-0.685
2818421,0.030,-0.640
2818422,0.045,-0.575
2818423,0.055,-0.420
2818424,0.070,-0.195
2818425,0.120,0.035
2818426,0.200,0.255
2818427,0.145,0.405
2818428,-0.120,0.545
2818429,-0.610,0.770
2818430,-1.290,1.000
2818431,-1.885,1.150
2818432,-2.405,1.200
2818433,-2.700,1.200
2818434,-2.705,1.165
2818435,-2.560,1.100
2818436,-2.400,1.050
2818437,-2.220,0.965
2818438,-2.095,0.855
2818439,-1.930,0.795
2818440,-1.740,0.730
2818441,-1.585,0.665
2818442,-1.450,0.580
2818443,-1.305,0.300
2818444,-1.160,-0.170
2818445,-1.035,-0.630
2818446,-0.975,-0.910
2818447,-0.835,-1.045
2818448,-0.720,-1.025
2818449,-0.580,-0.990
2818450,-0.440,-0.980
2818451,-0.265,-0.920
2818452,-0.055,-0.910
2818453,0.105,-0.890
2818454,0.295,-0.900
2818455,0.400,-0.885
2818456,0.455,-0.875
2818457,0.520,-0.875
2818458,0.525,-0.865
2818459,0.560,-0.835
2818460,0.580,-0.820
2818461,0.610,-0.785
2818462,0.630,-0.795
2818463,0.655,-0.830
2818464,0.645,-0.790
2818465,0.660,-0.745
2818466,0.660,-0.690
2818467,0.680,-0.690
2818468,0.720,-0.685
2818469,0.760,-0.680
2818470,0.800,-0.675
2818471,0.865,-0.670
2818472,0.855,-0.665
2818473,0.885,-0.650
2818474,0.945,-0.660
2818475,0.965,-0.640
2818476,1.020,-0.655
2818477,1.030,-0.675
2818478,1.100,-0.640
2818479,1.110,-0.620
2818480,1.165,-0.650
2818481,1.180,-0.655
2818482,1.210,-0.655
2818483,1.235,-0.640
2818484,1.265,-0.645
2818485,1.295,-0.650
2818486,1.290,-0.625
2818487,1.270,-0.625
2818488,1.245,-0.590
2818489,1.200,-0.595
2818490,1.170,-0.545
2818491,1.120,-0.500
2818492,1.060,-0.460
2818493,0.995,-0.425
2818494,0.920,-0.365
2818495,0.875,-0.345
2818496,0.825,-0.330
2818497,0.765,-0.300
2818498,0.715,-0.250
2818499,0.650,-0.240
2818500,0.590,-0.230
2818501,0.525,-0.280
2818502,0.485,-0.280
2818503,0.450,-0.300
2818504,0.370,-0.300
2818505,0.340,-0.270
2818506,0.290,-0.280
2818507,0.270,-0.265
2818508,0.255,-0.265
2818509,0.245,-0.260
2818510,0.250,-0.255
2818511,0.240,-0.235
2818512,0.240,-0.230
2818513,0.240,-0.245
2818514,0.250,-0.245
2818515,0.240,-0.240
2818516,0.230,-0.245
2818517,0.250,-0.235
2818518,0.245,-0.220
2818519,0.240,-0.260
2818520,0.265,-0.260
2818521,0.265,-0.275
2818522,0.270,-0.260
2818523,0.280,-0.235
2818524,0.265,-0.225
2818525,0.260,-0.250
2818526,0.285,-0.205
2818527,0.275,-0.150
2818528,0.305,-0.145
2818529,0.265,-0.110
2818530,0.240,-0.040
2818531,0.235,0.000
2818532,0.225,0.070
2818533,0.230,0.100
2818534,0.245,0.190
2818535,0.210,0.190
2818536,0.220,0.220
2818537,0.215,0.280
2818538,0.230,0.310
2818539,0.210,0.365
2818540,0.220,0.410
2818541,0.170,0.450
2818542,0.180,0.475
2818543,0.195,0.500
2818544,0.200,0.515
2818545,0.185,0.570
2818546,0.195,0.605
2818547,0.175,0.625
2818548,0.195,0.625
2818549,0.220,0.660
2818550,0.230,0.690
2818551,0.215,0.720
2818552,0.235,0.725
2818553,0.240,0.740
2818554,0.240,0.765
2818555,0.250,0.745
2818556,0.235,0.770
2818557,0.250,0.775
2818558,0.265,0.775
2818559,0.250,0.775
2818560,0.225,0.755
2818561,0.230,0.735
2818562,0.240,0.750
2818563,0.245,0.730
2818564,0.225,0.730
2818565,0.225,0.730
2818566,0.235,0.730
2818567,0.230,0.725
2818568,0.210,0.720
2818569,0.190,0.735
2818570,0.135,0.725
2818571,0.115,0.740
2818572,0.090,0.740
2818573,0.050,0.740
2818574,0.025,0.740
2818575,0.010,0.730
2818576,0.020,0.735
2818577,0.010,0.770
2818578,0.030,0.805
2818579,0.025,0.830
2818580,-0.005,0.830
2818581,0.025,0.815
2818582,0.055,0.815
2818583,0.040,0.825
2818584,0.050,0.860
2818585,0.020,0.895
2818586,0.020,0.925
2818587,0.040,0.920
2818588,0.040,0.910
2818589,0.070,0.965
2818590,0.065,0.985
2818591,0.055,0.965
2818592,0.055,0.960
2818593,0.090,0.990
2818594,0.100,0.980
2818595,0.085,0.975
2818596,0.090,0.970
2818597,0.100,1.000
2818598,0.065,0.990
2818599,0.100,0.960
2818600,0.110,0.935
2818601,0.115,0.945
2818602,0.110,0.945
2818603,0.090,0.910
2818604,0.075,0.910
2818605,0.100,0.960
2818606,0.075,0.955
2818607,0.075,0.930
2818608,0.100,0.940
2818609,0.110,0.950
2818610,0.100,1.010
2818611,0.070,1.020
2818612,0.035,0.980
2818613,0.010,1.000
2818614,0.005,0.995
2818615,-0.005,0.990
2818616,-0.030,0.980
2818617,-0.070,0.975
2818618,-0.080,0.990
2818619,-0.120,1.010
2818620,-0.120,0.985
2818621,-0.125,1.000
2818622,-0.145,1.020
2818623,-0.185,1.045
2818624,-0.165,1.050
2818625,-0.155,1.080
2818626,-0.160,1.120
2818627,-0.125,1.125
2818628,-0.120,1.110
2818629,-0.115,1.125
2818630,-0.120,1.140
2818631,-0.080,1.150
2818632,-0.095,1.150
2818633,-0.050,1.140
2818634,-0.055,1.150
2818635,-0.075,1.150
2818636,-0.070,1.140
2818637,-0.030,1.105
2818638,-0.030,1.070
2818639,-0.010,1.085
2818640,0.000,1.095
2818641,-0.005,1.095
2818642,-0.035,1.065
2818643,-0.045,1.050
2818644,-0.055,1.075
2818645,-0.075,1.095
2818646,-0.045,1.070
2818647,-0.040,1.065
2818648,-0.020,1.085
2818649,0.000,1.090
2818650,0.000,1.100
2818651,-0.005,1.110
2818652,0.010,1.085
2818653,0.010,1.110
2818654,-0.005,1.130
2818655,-0.015,1.125
2818656,-0.035,1.125
2818657,-0.050,1.120
2818658,-0.035,1.130
2818659,-0.070,1.120
2818660,-0.095,1.150
2818661,-0.115,1.190
2818662,-0.135,1.280
2818663,-0.115,1.360
2818664,-0.100,1.560
2818665,-0.040,1.870
2818666,0.005,2.185
2818667,-0.005,2.355
2818668,-0.280,2.470
2818669,-0.680,2.590
2818670,-1.335,2.735
2818671,-1.955,2.835
2818672,-2.555,2.860
2818673,-3.000,2.845
2818674,-3.110,2.840
2818675,-3.000,2.785
2818676,-2.780,2.715
2818677,-2.595,2.665
2818678,-2.465,2.565
2818679,-2.300,2.475
2818680,-2.095,2.440
2818681,-1.965,2.415
2818682,-1.835,2.430
2818683,-1.715,2.400
2818684,-1.575,2.085
2818685,-1.425,1.625
2818686,-1.320,1.260
2818687,-1.185,1.025
2818688,-1.030,0.895
2818689,-0.855,0.870
2818690,-0.700,0.905
2818691,-0.530,0.895
2818692,-0.335,0.895
2818693,-0.145,0.930
2818694,0.005,0.920
2818695,0.150,0.900
2818696,0.235,0.890
2818697,0.295,0.910
2818698,0.295,0.915
2818699,0.275,0.920
2818700,0.295,0.930
2818701,0.320,0.925
2818702,0.345,0.950
2818703,0.360,0.980
2818704,0.360,0.965
2818705,0.385,0.980
2818706,0.425,1.000
2818707,0.420,1.015
2818708,0.450,1.005
2818709,0.460,1.025
2818710,0.500,1.030
2818711,0.530,1.040
2818712,0.565,1.030
2818713,0.590,1.010
2818714,0.635,1.005
2818715,0.660,0.965
2818716,0.705,0.955
2818717,0.735,0.955
2818718,0.775,0.950
2818719,0.785,0.965
2818720,0.815,0.960
2818721,0.855,0.950
2818722,0.895,0.945
2818723,0.920,0.955
2818724,0.940,0.945
2818725,0.990,0.940
2818726,0.990,0.955
2818727,1.020,0.970
2818728,1.035,0.995
2818729,1.070,1.025
2818730,1.055,1.095
2818731,1.045,1.095
2818732,1.025,1.125
2818733,0.995,1.145
2818734,0.980,1.150
2818735,0.920,1.225
2818736,0.865,1.275
2818737,0.860,1.310
2818738,0.800,1.355
2818739,0.740,1.355
2818740,0.670,1.360
2818741,0.565,1.375
2818742,0.480,1.375
2818743,0.425,1.350
2818744,0.350,1.365
2818745,0.265,1.370
2818746,0.220,1.355
2818747,0.170,1.310
2818748,0.115,1.270
2818749,0.090,1.270
2818750,0.060,1.285
2818751,0.050,1.290
2818752,0.030,1.280
2818753,0.015,1.285
2818754,0.015,1.290
2818755,0.005,1.250
2818756,0.010,1.250
2818757,0.025,1.275
2818758,0.035,1.245
2818759,0.000,1.220
2818760,0.025,1.195
2818761,0.035,1.175
2818762,0.005,1.165
2818763,-0.005,1.160
2818764,0.020,1.165
2818765,0.020,1.180
2818766,0.015,1.160
2818767,-0.005,1.115
2818768,0.010,1.070
2818769,-0.005,1.115
2818770,0.005,1.115
2818771,-0.020,1.100
2818772,-0.040,1.165
2818773,-0.020,1.185
2818774,-0.010,1.200
2818775,-0.010,1.170
2818776,-0.005,1.175
2818777,0.000,1.200
2818778,0.015,1.200
2818779,0.020,1.195
2818780,0.040,1.235
2818781,0.050,1.265
2818782,0.070,1.260
2818783,0.060,1.250
2818784,0.060,1.230
2818785,0.045,1.275
2818786,0.075,1.300
2818787,0.055,1.305
2818788,0.075,1.305
2818789,0.060,1.330
2818790,0.030,1.380
2818791,-0.010,1.395
2818792,-0.065,1.370
2818793,-0.080,1.385
2818794,-0.120,1.425
2818795,-0.130,1.420
2818796,-0.160,1.430
2818797,-0.125,1.465
2818798,-0.135,1.475
2818799,-0.130,1.475
2818800,-0.160,1.520
2818801,-0.165,1.610
2818802,-0.155,1.760
2818803,-0.140,2.010
2818804,-0.090,2.310
2818805,-0.025,2.585
2818806,-0.070,2.710
2818807,-0.300,2.795
2818808,-0.730,2.880
2818809,-1.340,2.970
2818810,-1.960,3.015
2818811,-2.505,3.010
2818812,-2.865,2.995
2818813,-3.020,2.990
2818814,-2.885,2.960
2818815,-2.690,2.920
2818816,-2.560,2.865
2818817,-2.430,2.835
2818818,-2.280,2.855
2818819,-2.095,2.845
2818820,-1.975,2.855
2818821,-1.850,2.865
2818822,-1.685,2.810
2818823,-1.565,2.565
2818824,-1.450,2.155
2818825,-1.330,1.845
2818826,-1.225,1.685
2818827,-1.075,1.575
2818828,-0.955,1.560
2818829,-0.795,1.565
2818830,-0.605,1.565
2818831,-0.430,1.570
2818832,-0.240,1.595
2818833,-0.070,1.650
2818834,0.095,1.660
2818835,0.200,1.625
2818836,0.280,1.630
2818837,0.335,1.650
2818838,0.390,1.670
2818839,0.420,1.700
2818840,0.450,1.665
2818841,0.495,1.660
2818842,0.520,1.655
2818843,0.515,1.655
2818844,0.485,1.630
2818845,0.460,1.595
2818846,0.465,1.615
2818847,0.470,1.615
2818848,0.475,1.580
2818849,0.460,1.560
2818850,0.495,1.645
2818851,0.505,1.780
2818852,0.515,1.865
2818853,0.570,1.875
2818854,0.600,1.860
2818855,0.650,1.860
2818856,0.675,1.875
2818857,0.700,1.855
2818858,0.725,1.880
2818859,0.775,1.890
2818860,0.800,1.920
2818861,0.830,1.930
2818862,0.865,1.950
2818863,0.900,1.990
2818864,0.900,2.015
2818865,0.895,2.070
2818866,0.915,2.115
2818867,0.925,2.160
2818868,0.905,2.230
2818869,0.895,2.295
2818870,0.865,2.325
2818871,0.855,2.390
2818872,0.825,2.435
2818873,0.760,2.450
2818874,0.715,2.480
2818875,0.645,2.510
2818876,0.600,2.555
2818877,0.575,2.560
2818878,0.545,2.535
2818879,0.510,2.555
2818880,0.440,2.585
2818881,0.375,2.565
2818882,0.325,2.510
2818883,0.315,2.500
2818884,0.295,2.470
2818885,0.270,2.450
2818886,0.245,2.420
2818887,0.215,2.380
2818888,0.210,2.335
2818889,0.185,2.330
2818890,0.150,2.365
2818891,0.090,2.375
2818892,0.070,2.380
2818893,0.040,2.395
2818894,0.020,2.380
2818895,0.035,2.375
2818896,0.045,2.360
2818897,0.050,2.345
2818898,0.070,2.325
2818899,0.065,2.325
2818900,0.055,2.325
2818901,0.045,2.305
2818902,0.010,2.300
2818903,0.010,2.325
2818904,0.030,2.330
2818905,0.030,2.300
2818906,0.030,2.310
2818907,0.035,2.290
2818908,0.050,2.300
2818909,0.015,2.290
2818910,0.035,2.265
2818911,0.045,2.265
2818912,0.050,2.280
2818913,0.020,2.265
2818914,0.025,2.255
2818915,0.030,2.275
2818916,0.055,2.280
2818917,0.025,2.255
2818918,0.035,2.240
2818919,0.020,2.240
2818920,0.050,2.240
2818921,0.045,2.255
2818922,0.060,2.205
2818923,0.050,2.200
2818924,0.030,2.185
2818925,0.025,2.155
2818926,0.025,2.125
2818927,0.010,2.115
2818928,0.015,2.125
2818929,0.005,2.150
2818930,0.005,2.155
2818931,0.010,2.185
2818932,0.020,2.185
2818933,0.030,2.205
2818934,0.015,2.180
2818935,0.000,2.180
2818936,0.010,2.185
2818937,0.030,2.195
2818938,0.010,2.185
2818939,0.035,2.160
2818940,-0.005,2.180
2818941,0.005,2.175
2818942,-0.005,2.185
2818943,0.010,2.170
2818944,-0.010,2.160
2818945,-0.005,2.165
2818946,0.000,2.195
2818947,-0.010,2.180
2818948,-0.005,2.180
2818949,-0.005,2.200
2818950,0.000,2.175
2818951,0.000,2.180
2818952,0.020,2.150
2818953,0.000,2.155
2818954,0.035,2.155
2818955,0.015,2.140
2818956,0.005,2.155
2818957,0.005,2.140
2818958,0.015,2.150
2818959,0.010,2.125
2818960,0.015,2.140
2818961,0.020,2.120
2818962,0.025,2.090
2818963,0.045,2.080
2818964,0.060,2.030
2818965,0.040,2.025
2818966,0.065,2.020
2818967,0.075,2.005
2818968,0.060,2.005
2818969,0.040,2.020
2818970,0.055,2.020
2818971,0.055,2.030
2818972,0.090,2.035
2818973,0.100,2.020
2818974,0.100,2.020
2818975,0.100,2.040
2818976,0.065,2.030
2818977,0.030,2.015
2818978,0.020,2.035
2818979,0.005,2.050
2818980,-0.005,2.050
2818981,-0.005,2.030
2818982,-0.005,2.015
2818983,-0.005,2.045
2818984,0.005,2.035
2818985,0.005,2.040
2818986,-0.005,2.050
2818987,-0.005,2.050
2818988,0.005,2.030
2818989,0.020,2.040
2818990,0.025,2.060
2818991,0.065,2.075
2818992,0.050,2.080
2818993,0.040,2.060
2818994,0.050,2.070
2818995,0.070,2.060
2818996,0.085,2.065
2818997,0.085,2.050
2818998,0.070,2.035
2818999,0.085,2.040
2819000,0.095,2.050
2819001,0.065,2.025
2819002,0.065,2.035
2819003,0.065,2.040
2819004,0.100,2.085
2819005,0.075,2.190
2819006,0.095,2.295
2819007,0.140,2.460
2819008,0.205,2.595
2819009,0.185,2.675
2819010,-0.020,2.725
2819011,-0.375,2.770
2819012,-0.980,2.820
2819013,-1.600,2.865
2819014,-2.165,2.865
2819015,-2.645,2.875
2819016,-2.785,2.870
2819017,-2.815,2.860
2819018,-2.660,2.850
2819019,-2.510,2.855
2819020,-2.365,2.860
2819021,-2.225,2.860
2819022,-2.060,2.865
2819023,-1.880,2.840
2819024,-1.765,2.820
2819025,-1.635,2.800
2819026,-1.515,2.700
2819027,-1.365,2.460
2819028,-1.235,2.120
2819029,-1.115,1.855
2819030,-1.020,1.705
2819031,-0.865,1.645
2819032,-0.730,1.695
2819033,-0.610,1.715
2819034,-0.430,1.715
2819035,-0.240,1.745
2819036,-0.040,1.770
2819037,0.135,1.790
2819038,0.290,1.810
2819039,0.375,1.825
2819040,0.445,1.820
2819041,0.525,1.825
2819042,0.555,1.835
2819043,0.610,1.805
2819044,0.635,1.735
2819045,0.655,1.690
2819046,0.670,1.720
2819047,0.675,1.700
2819048,0.695,1.700
2819049,0.710,1.680
2819050,0.700,1.710
2819051,0.750,1.690
2819052,0.760,1.665
2819053,0.750,1.675
2819054,0.770,1.695
2819055,0.780,1.700
2819056,0.805,1.680
2819057,0.815,1.680
2819058,0.865,1.700
2819059,0.895,1.690
2819060,0.910,1.695
2819061,0.955,1.705
2819062,0.995,1.710
2819063,1.025,1.705
2819064,1.030,1.695
2819065,1.070,1.700
2819066,1.125,1.695
2819067,1.130,1.685
2819068,1.170,1.685
2819069,1.180,1.710
2819070,1.190,1.675
2819071,1.205,1.720
2819072,1.225,1.750
2819073,1.210,1.790
2819074,1.195,1.820
2819075,1.215,1.840
2819076,1.210,1.885
2819077,1.185,1.920
2819078,1.165,1.965
2819079,1.110,1.990
2819080,1.090,2.005
2819081,1.030,2.035
2819082,0.970,2.095
2819083,0.940,2.125
2819084,0.895,2.135
2819085,0.840,2.155
2819086,0.790,2.165
2819087,0.740,2.125
2819088,0.660,2.075
2819089,0.620,2.040
2819090,0.565,2.020
2819091,0.530,2.005
2819092,0.485,1.970
2819093,0.435,1.950
2819094,0.415,1.925
2819095,0.345,1.885
2819096,0.305,1.880
2819097,0.255,1.880
2819098,0.225,1.870
2819099,0.225,1.860
2819100,0.190,1.845
2819101,0.170,1.835
2819102,0.155,1.825
2819103,0.155,1.805
2819104,0.145,1.820
2819105,0.145,1.830
2819106,0.135,1.825
2819107,0.135,1.795
2819108,0.140,1.800
2819109,0.135,1.805
2819110,0.155,1.805
2819111,0.170,1.800
2819112,0.175,1.795
2819113,0.185,1.810
2819114,0.195,1.800
2819115,0.205,1.800
2819116,0.195,1.785
2819117,0.180,1.770
2819118,0.215,1.765
2819119,0.210,1.770
2819120,0.225,1.750
2819121,0.210,1.780
2819122,0.215,1.795
2819123,0.240,1.805
2819124,0.270,1.785
2819125,0.290,1.805
2819126,0.260,1.800
2819127,0.275,1.785
2819128,0.290,1.775
2819129,0.295,1.775
2819130,0.300,1.760
2819131,0.270,1.735
2819132,0.270,1.740
2819133,0.275,1.710
2819134,0.275,1.700
2819135,0.285,1.685
2819136,0.280,1.660
2819137,0.260,1.645
2819138,0.260,1.625
2819139,0.290,1.675
2819140,0.270,1.670
2819141,0.255,1.660
2819142,0.240,1.615
2819143,0.220,1.620
2819144,0.220,1.620
2819145,0.210,1.595
2819146,0.210,1.605
2819147,0.185,1.580
2819148,0.155,1.600
2819149,0.150,1.625
2819150,0.150,1.665
2819151,0.155,1.655
2819152,0.165,1.695
2819153,0.150,1.790
2819154,0.185,1.905
2819155,0.250,2.100
2819156,0.345,2.250
2819157,0.350,2.350
2819158,0.080,2.435
2819159,-0.400,2.505
2819160,-1.135,2.565
2819161,-1.795,2.590
2819162,-2.375,2.600
2819163,-2.700,2.625
2819164,-2.720,2.600
2819165,-2.610,2.620
2819166,-2.430,2.605
2819167,-2.245,2.590
2819168,-2.160,2.570
2819169,-1.995,2.550
2819170,-1.810,2.540
2819171,-1.700,2.520
2819172,-1.610,2.490
2819173,-1.480,2.440
2819174,-1.355,2.325
2819175,-1.210,2.020
2819176,-1.085,1.630
2819177,-1.010,1.365
2819178,-0.895,1.215
2819179,-0.760,1.135
2819180,-0.595,1.185
2819181,-0.425,1.225
2819182,-0.260,1.210
2819183,-0.060,1.205
2819184,0.100,1.235
2819185,0.280,1.230
2819186,0.435,1.240
2819187,0.555,1.235
2819188,0.635,1.225
2819189,0.655,1.195
2819190,0.675,1.185
2819191,0.670,1.175
2819192,0.685,1.150
2819193,0.680,1.145
2819194,0.715,1.135
2819195,0.745,1.105
2819196,0.755,1.105
2819197,0.775,1.120
2819198,0.780,1.130
2819199,0.790,1.105
2819200,0.850,1.105
2819201,0.835,1.095
2819202,0.860,1.085
2819203,0.885,1.095
2819204,0.890,1.100
2819205,0.955,1.090
2819206,0.955,1.085
2819207,1.005,1.085
2819208,1.015,1.080
2819209,1.035,1.040
2819210,1.075,1.055
2819211,1.110,1.040
2819212,1.110,1.030
2819213,1.125,1.035
2819214,1.180,1.040
2819215,1.200,1.050
2819216,1.215,1.040
2819217,1.235,1.055
2819218,1.290,1.030
2819219,1.275,1.040
2819220,1.270,1.080
2819221,1.265,1.065
2819222,1.245,1.140
2819223,1.195,1.220
2819224,1.160,1.265
2819225,1.130,1.265
2819226,1.105,1.300
2819227,1.070,1.315
2819228,0.990,1.320
2819229,0.940,1.330
2819230,0.840,1.310
2819231,0.780,1.325
2819232,0.690,1.315
2819233,0.665,1.315
2819234,0.585,1.295
2819235,0.550,1.280
2819236,0.510,1.245
2819237,0.475,1.240
2819238,0.410,1.240
2819239,0.365,1.205
2819240,0.340,1.190
2819241,0.330,1.165
2819242,0.315,1.150
2819243,0.285,1.105
2819244,0.260,1.105
2819245,0.265,1.095
2819246,0.265,1.075
2819247,0.220,1.065
2819248,0.225,1.055
2819249,0.215,1.065
2819250,0.215,1.075
2819251,0.220,1.070
2819252,0.230,1.045
2819253,0.245,1.055
2819254,0.250,1.055
2819255,0.255,1.015
2819256,0.265,0.990
2819257,0.260,0.970
2819258,0.255,0.925
2819259,0.270,0.900
2819260,0.260,0.820
2819261,0.260,0.730
2819262,0.290,0.700
2819263,0.290,0.660
2819264,0.260,0.640
2819265,0.255,0.625
2819266,0.260,0.615
2819267,0.265,0.590
2819268,0.255,0.555
2819269,0.260,0.420
2819270,0.250,0.330
2819271,0.285,0.290
2819272,0.275,0.295
2819273,0.265,0.305
2819274,0.255,0.310
2819275,0.275,0.300
2819276,0.260,0.290
2819277,0.255,0.290
2819278,0.235,0.285
2819279,0.210,0.255
2819280,0.160,0.230
2819281,0.180,0.235
2819282,0.180,0.210
2819283,0.150,0.165
2819284,0.145,0.095
2819285,0.125,0.060
2819286,0.130,0.025
2819287,0.135,-0.020
2819288,0.155,-0.050
2819289,0.145,-0.065
2819290,0.160,-0.080
2819291,0.150,-0.095
2819292,0.120,-0.160
2819293,0.150,-0.215
2819294,0.145,-0.190
2819295,0.145,-0.240
2819296,0.155,-0.280
2819297,0.135,-0.305
2819298,0.150,-0.325
2819299,0.170,-0.335
2819300,0.175,-0.350
2819301,0.165,-0.395
2819302,0.190,-0.425
2819303,0.190,-0.450
2819304,0.200,-0.495
2819305,0.195,-0.545
2819306,0.190,-0.540
2819307,0.200,-0.545
2819308,0.200,-0.560
2819309,0.180,-0.570
2819310,0.175,-0.540
2819311,0.180,-0.460
2819312,0.215,-0.370
2819313,0.260,-0.260
2819314,0.290,-0.065
2819315,0.370,0.175
2819316,0.375,0.320
2819317,0.150,0.460
2819318,-0.260,0.695
2819319,-0.940,0.910
2819320,-1.620,1.065
2819321,-2.180,1.150
2819322,-2.590,1.175
2819323,-2.700,1.170
2819324,-2.600,1.135
2819325,-2.430,1.070
2819326,-2.220,0.995
2819327,-2.085,0.875
2819328,-1.980,0.750
2819329,-1.775,0.670
2819330,-1.665,0.615
2819331,-1.580,0.575
2819332,-1.445,0.500
2819333,-1.330,0.265
2819334,-1.190,-0.145
2819335,-1.100,-0.580
2819336,-1.000,-0.870
2819337,-0.865,-1.020
2819338,-0.730,-1.085
2819339,-0.595,-1.070
2819340,-0.440,-1.025
2819341,-0.250,-0.985
2819342,-0.075,-0.995
2819343,0.110,-0.965
2819344,0.300,-0.945
2819345,0.430,-0.945
2819346,0.535,-0.950
2819347,0.620,-0.965
2819348,0.665,-0.940
2819349,0.670,-0.960
2819350,0.690,-0.975
2819351,0.710,-0.990
2819352,0.750,-0.995
2819353,0.800,-1.015
2819354,0.790,-1.035
2819355,0.810,-1.015
2819356,0.835,-0.985
2819357,0.860,-0.990
2819358,0.875,-0.995
2819359,0.910,-0.990
2819360,0.965,-1.005
2819361,0.990,-1.015
2819362,0.995,-1.005
2819363,1.015,-1.005
2819364,1.065,-1.005
2819365,1.100,-1.020
2819366,1.155,-1.065
2819367,1.185,-1.060
2819368,1.195,-1.055
2819369,1.235,-1.040
2819370,1.280,-1.045
2819371,1.285,-1.040
2819372,1.315,-1.030
2819373,1.340,-1.030
2819374,1.335,-1.020
2819375,1.320,-1.020
2819376,1.315,-0.995
2819377,1.310,-0.980
2819378,1.275,-0.960
2819379,1.260,-0.940
2819380,1.215,-0.905
2819381,1.160,-0.870
2819382,1.125,-0.825
2819383,1.080,-0.810
2819384,1.005,-0.770
2819385,0.985,-0.745
2819386,0.915,-0.705
2819387,0.835,-0.710
2819388,0.800,-0.715
2819389,0.705,-0.695
2819390,0.670,-0.675
2819391,0.595,-0.680
2819392,0.530,-0.670
2819393,0.500,-0.690
2819394,0.435,-0.705
2819395,0.410,-0.760
2819396,0.390,-0.805
2819397,0.375,-0.800
2819398,0.360,-0.775
2819399,0.315,-0.810
2819400,0.305,-0.815
2819401,0.280,-0.810
2819402,0.305,-0.815
2819403,0.305,-0.825
2819404,0.310,-0.835
2819405,0.305,-0.850
2819406,0.275,-0.825
2819407,0.285,-0.835
2819408,0.285,-0.835
2819409,0.270,-0.865
2819410,0.280,-0.875
2819411,0.285,-0.885
2819412,0.300,-0.900
2819413,0.310,-0.905
2819414,0.300,-0.885
2819415,0.275,-0.880
2819416,0.275,-0.885
2819417,0.260,-0.905
2819418,0.230,-0.880
2819419,0.190,-0.915
2819420,0.200,-0.920
2819421,0.200,-0.935
2819422,0.210,-0.945
2819423,0.165,-0.955
2819424,0.170,-0.980
2819425,0.185,-0.995
2819426,0.150,-0.995
2819427,0.125,-1.020
2819428,0.130,-1.040
2819429,0.130,-1.060
2819430,0.135,-1.040
2819431,0.100,-1.045
2819432,0.120,-1.070
2819433,0.125,-1.085
2819434,0.140,-1.140
2819435,0.130,-1.130
2819436,0.130,-1.125
2819437,0.115,-1.105
2819438,0.095,-1.100
2819439,0.080,-1.105
2819440,0.085,-1.085
2819441,0.115,-1.060
2819442,0.125,-1.065
2819443,0.125,-1.045
2819444,0.120,-1.045
2819445,0.125,-1.045
2819446,0.130,-1.015
2819447,0.155,-1.035
2819448,0.160,-1.045
2819449,0.160,-1.035
2819450,0.145,-1.000
2819451,0.155,-1.010
2819452,0.155,-1.030
2819453,0.170,-1.000
2819454,0.170,-0.980
2819455,0.150,-1.005
2819456,0.170,-0.995
2819457,0.155,-0.965
2819458,0.160,-0.990
2819459,0.160,-0.975
2819460,0.155,-0.980
2819461,0.195,-0.975
2819462,0.210,-0.965
2819463,0.195,-0.965
2819464,0.230,-0.960
2819465,0.230,-0.950
2819466,0.220,-0.955
2819467,0.220,-0.985
2819468,0.185,-1.000
2819469,0.165,-0.990
2819470,0.135,-1.025
2819471,0.140,-1.055
2819472,0.095,-1.055
2819473,0.085,-1.045
2819474,0.075,-1.090
2819475,0.080,-1.130
2819476,0.070,-1.150
2819477,0.035,-1.135
2819478,0.035,-1.120
2819479,0.000,-1.145
2819480,0.005,-1.140
2819481,0.025,-1.125
2819482,0.040,-1.100
2819483,0.040,-1.085
2819484,0.045,-1.115
2819485,0.055,-1.100
2819486,0.065,-1.095
2819487,0.055,-1.070
2819488,0.060,-1.090
2819489,0.075,-1.095
2819490,0.090,-1.060
2819491,0.080,-1.100
2819492,0.070,-1.065
2819493,0.080,-1.065
2819494,0.090,-1.045
2819495,0.070,-1.070
2819496,0.070,-1.050
2819497,0.095,-1.065
2819498,0.075,-1.040
2819499,0.095,-1.045
2819500,0.090,-1.060
2819501,0.100,-1.060
2819502,0.090,-1.055
2819503,0.095,-1.070
2819504,0.085,-1.065
2819505,0.090,-1.090
2819506,0.095,-1.080
2819507,0.110,-1.080
2819508,0.115,-1.080
2819509,0.145,-1.095
2819510,0.115,-1.075
2819511,0.105,-1.090
2819512,0.100,-1.110
2819513,0.105,-1.110
2819514,0.080,-1.090
2819515,0.100,-1.110
2819516,0.100,-1.105
2819517,0.115,-1.110
2819518,0.150,-1.105
2819519,0.170,-1.060
2819520,0.195,-0.925
2819521,0.185,-0.775
2819522,0.215,-0.510
2819523,0.290,-0.300
2819524,0.200,-0.130
2819525,-0.075,0.015
2819526,-0.605,0.205
2819527,-1.310,0.405
2819528,-1.980,0.550
2819529,-2.470,0.535
2819530,-2.715,0.515
2819531,-2.695,0.515
2819532,-2.600,0.425
2819533,-2.465,0.345
2819534,-2.320,0.220
2819535,-2.210,0.105
2819536,-2.060,0.035
2819537,-1.900,-0.020
2819538,-1.815,-0.070
2819539,-1.670,-0.080
2819540,-1.530,-0.335
2819541,-1.395,-0.790
2819542,-1.270,-1.200
2819543,-1.155,-1.480
2819544,-1.015,-1.625
2819545,-0.845,-1.660
2819546,-0.695,-1.660
2819547,-0.500,-1.665
2819548,-0.315,-1.640
2819549,-0.125,-1.620
2819550,0.050,-1.615
2819551,0.205,-1.650
2819552,0.300,-1.625
2819553,0.375,-1.620
2819554,0.430,-1.620
2819555,0.455,-1.575
2819556,0.500,-1.550
2819557,0.545,-1.580
2819558,0.560,-1.615
2819559,0.595,-1.610
2819560,0.595,-1.600
2819561,0.625,-1.585
2819562,0.650,-1.570
2819563,0.690,-1.560
2819564,0.720,-1.525
2819565,0.755,-1.505
2819566,0.805,-1.505
2819567,0.840,-1.495
2819568,0.850,-1.470
2819569,0.865,-1.485
2819570,0.875,-1.485
2819571,0.880,-1.500
2819572,0.900,-1.475
2819573,0.925,-1.470
2819574,0.940,-1.485
2819575,0.960,-1.465
2819576,1.000,-1.475
2819577,0.990,-1.460
2819578,1.010,-1.470
2819579,1.025,-1.445
2819580,1.080,-1.440
2819581,1.075,-1.455
2819582,1.070,-1.475
2819583,1.065,-1.440
2819584,1.085,-1.410
2819585,1.070,-1.405
2819586,1.045,-1.370
2819587,1.045,-1.340
2819588,0.990,-1.300
2819589,0.940,-1.260
2819590,0.885,-1.245
2819591,0.860,-1.230
2819592,0.810,-1.200
2819593,0.735,-1.205
2819594,0.670,-1.190
2819595,0.615,-1.180
2819596,0.550,-1.205
2819597,0.480,-1.215
2819598,0.440,-1.245
2819599,0.420,-1.250
2819600,0.330,-1.270
2819601,0.295,-1.295
2819602,0.260,-1.305
2819603,0.245,-1.330
2819604,0.210,-1.330
2819605,0.210,-1.335
2819606,0.150,-1.350
2819607,0.155,-1.350
2819608,0.115,-1.365
2819609,0.125,-1.370
2819610,0.130,-1.350
2819611,0.135,-1.365
2819612,0.100,-1.400
2819613,0.080,-1.380
2819614,0.035,-1.380
2819615,0.015,-1.380
2819616,0.010,-1.425
2819617,0.015,-1.430
2819618,0.005,-1.440
2819619,0.020,-1.440
2819620,-0.005,-1.485
2819621,-0.015,-1.515
2819622,-0.015,-1.545
2819623,-0.005,-1.555
2819624,-0.020,-1.580
2819625,-0.035,-1.600
2819626,0.000,-1.625
2819627,-0.010,-1.650
2819628,-0.025,-1.685
2819629,-0.005,-1.700
2819630,0.000,-1.700
2819631,0.010,-1.700
2819632,0.000,-1.720
2819633,0.005,-1.725
2819634,0.020,-1.765
2819635,0.035,-1.790
2819636,0.015,-1.830
2819637,0.010,-1.820
2819638,-0.005,-1.795
2819639,0.010,-1.840
2819640,0.005,-1.900
2819641,0.035,-1.920
2819642,0.015,-1.905
2819643,0.000,-1.870
2819644,0.015,-1.870
2819645,0.020,-1.870
2819646,0.025,-1.875
2819647,0.015,-1.895
2819648,0.025,-1.890
2819649,0.035,-1.865
2819650,0.060,-1.880
2819651,0.050,-1.830
2819652,0.030,-1.855
2819653,0.000,-1.850
2819654,-0.025,-1.825
2819655,-0.035,-1.800
2819656,0.000,-1.845
2819657,-0.025,-1.835
2819658,-0.010,-1.825
2819659,-0.020,-1.850
2819660,-0.010,-1.890
2819661,-0.010,-1.895
2819662,-0.015,-1.880
2819663,-0.040,-1.890
2819664,-0.055,-1.890
2819665,-0.035,-1.895
2819666,-0.045,-1.920
2819667,-0.065,-1.910
2819668,-0.075,-1.930
2819669,-0.040,-1.950
2819670,-0.040,-1.950
2819671,-0.040,-1.915
2819672,-0.055,-1.915
2819673,-0.055,-1.870
2819674,-0.065,-1.820
2819675,-0.070,-1.690
2819676,-0.055,-1.495
2819677,-0.015,-1.155
2819678,0.060,-0.805
2819679,0.085,-0.530
2819680,-0.085,-0.390
2819681,-0.445,-0.305
2819682,-1.015,-0.115
2819683,-1.645,0.045
2819684,-2.195,0.095
2819685,-2.580,0.075
2819686,-2.720,0.005
2819687,-2.655,-0.135
2819688,-2.545,-0.275
2819689,-2.390,-0.395
2819690,-2.285,-0.560
2819691,-2.160,-0.660
2819692,-2.005,-0.715
2819693,-1.850,-0.700
2819694,-1.770,-0.675
2819695,-1.675,-0.780
2819696,-1.555,-1.105
2819697,-1.475,-1.575
2819698,-1.445,-1.935
2819699,-1.335,-2.175
2819700,-1.195,-2.300
2819701,-0.990,-2.320
2819702,-0.810,-2.320
2819703,-0.625,-2.340
2819704,-0.430,-2.350
2819705,-0.260,-2.310
2819706,-0.100,-2.270
2819707,0.035,-2.285
2819708,0.115,-2.295
2819709,0.185,-2.290
2819710,0.240,-2.290
2819711,0.290,-2.290
2819712,0.300,-2.275
2819713,0.320,-2.260
2819714,0.340,-2.295
2819715,0.370,-2.305
2819716,0.395,-2.270
2819717,0.410,-2.260
2819718,0.415,-2.240
2819719,0.435,-2.245
2819720,0.450,-2.230
2819721,0.485,-2.230
2819722,0.515,-2.230
2819723,0.545,-2.225
2819724,0.575,-2.225
2819725,0.615,-2.185
2819726,0.645,-2.205
2819727,0.680,-2.220
2819728,0.740,-2.210
2819729,0.780,-2.210
2819730,0.800,-2.220
2819731,0.815,-2.230
2819732,0.885,-2.240
2819733,0.875,-2.230
2819734,0.920,-2.185
2819735,0.900,-2.190
2819736,0.885,-2.195
2819737,0.900,-2.165
2819738,0.920,-2.125
2819739,0.915,-2.105
2819740,0.900,-2.080
2819741,0.890,-2.045
2819742,0.855,-2.020
2819743,0.810,-1.960
2819744,0.785,-1.915
2819745,0.715,-1.885
2819746,0.655,-1.855
2819747,0.610,-1.835
2819748,0.590,-1.800
2819749,0.515,-1.765
2819750,0.465,-1.745
2819751,0.410,-1.745
2819752,0.355,-1.745
2819753,0.315,-1.750
2819754,0.260,-1.765
2819755,0.230,-1.815
2819756,0.195,-1.845
2819757,0.145,-1.825
2819758,0.130,-1.830
2819759,0.095,-1.840
2819760,0.070,-1.870
2819761,0.040,-1.855
2819762,0.075,-1.855
2819763,0.030,-1.870
2819764,0.030,-1.880
2819765,0.035,-1.905
2819766,0.060,-1.890
2819767,0.045,-1.890
2819768,0.030,-1.920
2819769,0.000,-1.935
2819770,-0.010,-1.935
2819771,-0.050,-1.935
2819772,-0.080,-1.945
2819773,-0.070,-1.945
2819774,-0.080,-1.930
2819775,-0.095,-1.940
2819776,-0.080,-1.950
2819777,-0.070,-1.955
2819778,-0.065,-1.960
2819779,-0.075,-2.015
2819780,-0.085,-2.000
2819781,-0.085,-1.980
2819782,-0.085,-1.995
2819783,-0.090,-1.995
2819784,-0.090,-2.015
2819785,-0.085,-2.015
2819786,-0.085,-2.025
2819787,-0.070,-2.035
2819788,-0.055,-2.040
2819789,-0.065,-2.020
2819790,-0.050,-2.025
2819791,-0.060,-2.015
2819792,-0.085,-1.970
2819793,-0.070,-1.970
2819794,-0.045,-1.980
2819795,-0.055,-1.985
2819796,-0.045,-1.960
2819797,-0.055,-1.915
2819798,-0.045,-1.890
2819799,-0.075,-1.880
2819800,-0.025,-1.865
2819801,0.010,-1.860
2819802,0.015,-1.855
2819803,0.015,-1.875
2819804,0.035,-1.850
2819805,0.055,-1.830
2819806,0.060,-1.845
2819807,0.080,-1.865
2819808,0.060,-1.840
2819809,0.060,-1.820
2819810,0.045,-1.810
2819811,0.020,-1.790
2819812,0.005,-1.725
2819813,0.005,-1.625
2819814,0.000,-1.475
2819815,0.000,-1.280
2819816,0.045,-0.985
2819817,0.100,-0.650
2819818,0.045,-0.435
2819819,-0.185,-0.300
2819820,-0.580,-0.185
2819821,-1.165,-0.015
2819822,-1.785,0.150
2819823,-2.295,0.125
2819824,-2.665,0.060
2819825,-2.805,0.015
2819826,-2.725,-0.115
2819827,-2.585,-0.240
2819828,-2.420,-0.370
2819829,-2.305,-0.495
2819830,-2.180,-0.555
2819831,-2.005,-0.600
2819832,-1.870,-0.640
2819833,-1.735,-0.665
2819834,-1.620,-0.770
2819835,-1.495,-1.080
2819836,-1.400,-1.565
2819837,-1.350,-1.975
2819838,-1.275,-2.200
2819839,-1.120,-2.310
2819840,-0.950,-2.315
2819841,-0.780,-2.235
2819842,-0.600,-2.220
2819843,-0.410,-2.175
2819844,-0.245,-2.130
2819845,-0.055,-2.115
2819846,0.135,-2.095
2819847,0.285,-2.120
2819848,0.370,-2.100
2819849,0.430,-2.080
2819850,0.465,-2.080
2819851,0.500,-2.090
2819852,0.540,-2.070
2819853,0.560,-2.075
2819854,0.590,-2.090
2819855,0.600,-2.080
2819856,0.625,-2.040
2819857,0.645,-2.050
2819858,0.665,-2.035
2819859,0.695,-2.050
2819860,0.720,-2.040
2819861,0.720,-2.040
2819862,0.760,-2.040
2819863,0.795,-2.045
2819864,0.820,-2.055
2819865,0.845,-2.045
2819866,0.915,-2.060
2819867,0.935,-2.060
2819868,0.935,-2.070
2819869,0.975,-2.075
2819870,1.005,-2.075
2819871,1.025,-2.045
2819872,1.060,-2.050
2819873,1.085,-2.045
2819874,1.085,-2.030
2819875,1.140,-2.035
2819876,1.165,-2.020
2819877,1.170,-2.010
2819878,1.200,-1.960
2819879,1.170,-1.920
2819880,1.145,-1.890
2819881,1.150,-1.845
2819882,1.150,-1.785
2819883,1.145,-1.740
2819884,1.095,-1.700
2819885,1.030,-1.680
2819886,0.975,-1.670
2819887,0.950,-1.595
2819888,0.885,-1.585
2819889,0.835,-1.580
2819890,0.765,-1.570
2819891,0.720,-1.590
2819892,0.675,-1.580
2819893,0.590,-1.610
2819894,0.520,-1.615
2819895,0.505,-1.600
2819896,0.410,-1.590
2819897,0.330,-1.595
2819898,0.280,-1.595
2819899,0.240,-1.605
2819900,0.215,-1.615
2819901,0.190,-1.615
2819902,0.170,-1.630
2819903,0.170,-1.625
2819904,0.190,-1.630
2819905,0.160,-1.670
2819906,0.185,-1.685
2819907,0.175,-1.680
2819908,0.140,-1.670
2819909,0.180,-1.680
2819910,0.150,-1.690
2819911,0.145,-1.680
2819912,0.150,-1.695
2819913,0.140,-1.645
2819914,0.140,-1.675
2819915,0.140,-1.680
2819916,0.165,-1.690
2819917,0.170,-1.700
2819918,0.190,-1.695
2819919,0.150,-1.695
2819920,0.180,-1.695
2819921,0.185,-1.705
2819922,0.170,-1.710
2819923,0.185,-1.710
2819924,0.210,-1.685
2819925,0.200,-1.655
2819926,0.205,-1.655
2819927,0.220,-1.660
2819928,0.215,-1.645
2819929,0.220,-1.625
2819930,0.205,-1.635
2819931,0.195,-1.620
2819932,0.205,-1.630
2819933,0.220,-1.625
2819934,0.220,-1.595
2819935,0.205,-1.585
2819936,0.200,-1.595
2819937,0.200,-1.590
2819938,0.195,-1.580
2819939,0.180,-1.605
2819940,0.155,-1.630
2819941,0.150,-1.620
2819942,0.150,-1.600
2819943,0.120,-1.605
2819944,0.135,-1.615
2819945,0.120,-1.630
2819946,0.100,-1.610
2819947,0.055,-1.615
2819948,0.075,-1.625
2819949,0.065,-1.615
2819950,0.035,-1.615
2819951,0.055,-1.595
2819952,0.045,-1.605
2819953,0.050,-1.610
2819954,0.050,-1.605
2819955,0.070,-1.600
2819956,0.060,-1.585
2819957,0.055,-1.590
2819958,0.085,-1.610
2819959,0.075,-1.585
2819960,0.105,-1.545
2819961,0.090,-1.540
2819962,0.085,-1.525
2819963,0.110,-1.525
2819964,0.115,-1.535
2819965,0.140,-1.515
2819966,0.170,-1.525
2819967,0.160,-1.485
2819968,0.145,-1.500
2819969,0.170,-1.480
2819970,0.195,-1.470
2819971,0.205,-1.450
2819972,0.210,-1.430
2819973,0.200,-1.430
2819974,0.230,-1.410
2819975,0.210,-1.405
2819976,0.195,-1.400
2819977,0.205,-1.390
2819978,0.180,-1.380
2819979,0.185,-1.395
2819980,0.215,-1.415
2819981,0.195,-1.430
2819982,0.195,-1.465
2819983,0.210,-1.450
2819984,0.175,-1.470
2819985,0.160,-1.465
2819986,0.155,-1.470
2819987,0.130,-1.445
2819988,0.110,-1.450
2819989,0.090,-1.455
2819990,0.075,-1.430
2819991,0.075,-1.440
2819992,0.085,-1.450
2819993,0.060,-1.445
2819994,0.055,-1.440
2819995,0.080,-1.450
2819996,0.060,-1.450
2819997,0.070,-1.460
2819998,0.090,-1.490
2819999,0.065,-1.490
2820000,0.080,-1.480
2820001,0.095,-1.450
2820002,0.100,-1.420
2820003,0.065,-1.395
2820004,0.080,-1.340
2820005,0.095,-1.255
2820006,0.120,-1.105
2820007,0.135,-0.940
2820008,0.215,-0.680
2820009,0.290,-0.465
2820010,0.235,-0.305
2820011,-0.015,-0.155
2820012,-0.440,0.120
2820013,-1.055,0.340
2820014,-1.730,0.490
2820015,-2.255,0.535
2820016,-2.620,0.590
2820017,-2.715,0.600
2820018,-2.620,0.565
2820019,-2.450,0.500
2820020,-2.280,0.460
2820021,-2.130,0.385
2820022,-2.015,0.295
2820023,-1.825,0.200
2820024,-1.675,0.120
2820025,-1.555,0.065
2820026,-1.420,-0.020
2820027,-1.335,-0.290
2820028,-1.205,-0.725
2820029,-1.120,-1.185
2820030,-1.035,-1.490
2820031,-0.935,-1.655
2820032,-0.815,-1.730
2820033,-0.665,-1.700
2820034,-0.535,-1.675
2820035,-0.355,-1.660
2820036,-0.180,-1.630
2820037,0.010,-1.610
2820038,0.195,-1.565
2820039,0.330,-1.570
2820040,0.440,-1.600
2820041,0.530,-1.600
2820042,0.585,-1.610
2820043,0.615,-1.585
2820044,0.655,-1.585
2820045,0.675,-1.580
2820046,0.725,-1.570
2820047,0.755,-1.565
2820048,0.790,-1.565
2820049,0.820,-1.525
2820050,0.835,-1.515
2820051,0.870,-1.515
2820052,0.885,-1.510
2820053,0.930,-1.515
2820054,0.970,-1.490
2820055,1.000,-1.470
2820056,1.025,-1.440
2820057,1.050,-1.445
2820058,1.080,-1.440
2820059,1.100,-1.415
2820060,1.165,-1.420
2820061,1.205,-1.420
2820062,1.225,-1.430
2820063,1.265,-1.420
2820064,1.295,-1.425
2820065,1.305,-1.410
2820066,1.350,-1.395
2820067,1.350,-1.390
2820068,1.370,-1.395
2820069,1.355,-1.410
2820070,1.365,-1.405
2820071,1.345,-1.375
2820072,1.365,-1.395
2820073,1.345,-1.390
2820074,1.300,-1.370
2820075,1.290,-1.300
2820076,1.240,-1.280
2820077,1.205,-1.245
2820078,1.175,-1.210
2820079,1.115,-1.165
2820080,1.080,-1.110
2820081,1.060,-1.095
2820082,0.980,-1.075
2820083,0.945,-1.085
2820084,0.955,-1.085
2820085,0.880,-1.060
2820086,0.825,-1.065
2820087,0.760,-1.065
2820088,0.705,-1.050
2820089,0.695,-1.045
2820090,0.645,-1.035
2820091,0.585,-1.065
2820092,0.540,-1.055
2820093,0.560,-1.060
2820094,0.525,-1.065
2820095,0.475,-1.060
2820096,0.450,-1.050
2820097,0.430,-1.065
2820098,0.405,-1.070
2820099,0.415,-1.085
2820100,0.405,-1.050
2820101,0.425,-1.050
2820102,0.400,-1.020
2820103,0.395,-1.045
2820104,0.415,-1.050
2820105,0.425,-1.030
2820106,0.410,-1.010
2820107,0.405,-1.020
2820108,0.405,-1.055
2820109,0.390,-1.050
2820110,0.420,-1.040
2820111,0.395,-1.045
2820112,0.380,-1.070
2820113,0.385,-1.065
2820114,0.390,-1.070
2820115,0.365,-1.110
2820116,0.295,-1.130
2820117,0.290,-1.125
2820118,0.260,-1.140
2820119,0.230,-1.155
2820120,0.215,-1.145
2820121,0.185,-1.145
2820122,0.210,-1.150
2820123,0.220,-1.160
2820124,0.215,-1.165
2820125,0.215,-1.195
2820126,0.230,-1.190
2820127,0.245,-1.195
2820128,0.215,-1.175
2820129,0.230,-1.150
2820130,0.205,-1.170
2820131,0.225,-1.150
2820132,0.260,-1.120
2820133,0.265,-1.095
2820134,0.280,-1.100
2820135,0.295,-1.080
2820136,0.290,-1.080
2820137,0.280,-1.060
2820138,0.290,-1.055
2820139,0.290,-1.020
2820140,0.315,-0.995
2820141,0.320,-0.990
2820142,0.320,-0.970
2820143,0.320,-0.965
2820144,0.345,-0.965
2820145,0.355,-0.935
2820146,0.360,-0.945
2820147,0.365,-0.925
2820148,0.360,-0.910
2820149,0.370,-0.880
2820150,0.350,-0.875
2820151,0.370,-0.875
2820152,0.365,-0.890
2820153,0.345,-0.880
2820154,0.340,-0.880
2820155,0.345,-0.880
2820156,0.335,-0.905
2820157,0.325,-0.930
2820158,0.315,-0.950
2820159,0.305,-0.965
2820160,0.295,-0.980
2820161,0.260,-0.995
2820162,0.235,-0.975
2820163,0.185,-0.975
2820164,0.200,-0.990
2820165,0.190,-0.995
2820166,0.200,-1.025
2820167,0.200,-1.045
2820168,0.200,-1.030
2820169,0.165,-1.010
2820170,0.145,-1.005
2820171,0.145,-0.975
2820172,0.170,-0.985
2820173,0.190,-0.990
2820174,0.190,-0.985
2820175,0.185,-0.945
2820176,0.220,-0.940
2820177,0.205,-0.950
2820178,0.210,-0.940
2820179,0.200,-0.930
2820180,0.210,-0.910
2820181,0.235,-0.900
2820182,0.210,-0.910
2820183,0.230,-0.895
2820184,0.220,-0.905
2820185,0.235,-0.865
2820186,0.235,-0.880
2820187,0.215,-0.875
2820188,0.215,-0.850
2820189,0.245,-0.860
2820190,0.240,-0.825
2820191,0.235,-0.805
2820192,0.215,-0.820
2820193,0.220,-0.775
2820194,0.215,-0.695
2820195,0.235,-0.580
2820196,0.245,-0.420
2820197,0.285,-0.205
2820198,0.370,0.005
2820199,0.360,0.135
2820200,0.135,0.280
2820201,-0.295,0.470
2820202,-0.955,0.700
2820203,-1.615,0.835
2820204,-2.180,0.885
2820205,-2.555,0.890
2820206,-2.680,0.900
2820207,-2.595,0.835
2820208,-2.445,0.765
2820209,-2.280,0.700
2820210,-2.135,0.600
2820211,-2.060,0.490
2820212,-1.895,0.425
2820213,-1.735,0.390
2820214,-1.630,0.365
2820215,-1.500,0.315
2820216,-1.355,0.150
2820217,-1.175,-0.180
2820218,-1.080,-0.610
2820219,-0.965,-0.955
2820220,-0.865,-1.150
2820221,-0.735,-1.220
2820222,-0.605,-1.215
2820223,-0.465,-1.150
2820224,-0.305,-1.110
2820225,-0.120,-1.095
2820226,0.040,-1.060
2820227,0.255,-1.010
2820228,0.450,-1.000
2820229,0.560,-1.015
2820230,0.640,-1.025
2820231,0.685,-1.015
2820232,0.745,-1.015
2820233,0.770,-1.010
2820234,0.780,-1.035
2820235,0.790,-1.020
2820236,0.815,-1.005
2820237,0.815,-1.010
2820238,0.815,-1.015
2820239,0.825,-1.010
2820240,0.855,-0.980
2820241,0.875,-0.975
2820242,0.870,-0.950
2820243,0.885,-0.935
2820244,0.935,-0.915
2820245,0.935,-0.885
2820246,0.980,-0.885
2820247,1.015,-0.845
2820248,1.080,-0.830
2820249,1.105,-0.830
2820250,1.145,-0.825
2820251,1.190,-0.835
2820252,1.220,-0.860
2820253,1.250,-0.870
2820254,1.260,-0.875
2820255,1.295,-0.905
2820256,1.335,-0.870
2820257,1.350,-0.880
2820258,1.345,-0.860
2820259,1.380,-0.860
2820260,1.420,-0.830
2820261,1.420,-0.825
2820262,1.435,-0.800
2820263,1.425,-0.775
2820264,1.420,-0.720
2820265,1.390,-0.705
2820266,1.345,-0.660
2820267,1.315,-0.625
2820268,1.255,-0.630
2820269,1.230,-0.590
2820270,1.170,-0.520
2820271,1.090,-0.530
2820272,1.040,-0.530
2820273,0.990,-0.510
2820274,0.895,-0.480
2820275,0.810,-0.500
2820276,0.755,-0.540
2820277,0.685,-0.530
2820278,0.595,-0.550
2820279,0.540,-0.555
2820280,0.470,-0.550
2820281,0.410,-0.565
2820282,0.380,-0.575
2820283,0.340,-0.595
2820284,0.315,-0.580
2820285,0.290,-0.550
2820286,0.275,-0.570
2820287,0.240,-0.565
2820288,0.210,-0.555
2820289,0.215,-0.525
2820290,0.205,-0.540
2820291,0.195,-0.565
2820292,0.190,-0.520
2820293,0.205,-0.480
2820294,0.245,-0.475
2820295,0.225,-0.510
2820296,0.220,-0.520
2820297,0.215,-0.540
2820298,0.225,-0.555
2820299,0.205,-0.535
2820300,0.190,-0.505
2820301,0.215,-0.495
2820302,0.215,-0.470
2820303,0.245,-0.470
2820304,0.250,-0.460
2820305,0.260,-0.440
2820306,0.290,-0.430
2820307,0.275,-0.415
2820308,0.275,-0.430
2820309,0.295,-0.420
2820310,0.310,-0.365
2820311,0.310,-0.360
2820312,0.310,-0.390
2820313,0.325,-0.365
2820314,0.305,-0.355
2820315,0.305,-0.350
2820316,0.275,-0.350
2820317,0.285,-0.350
2820318,0.290,-0.320
2820319,0.275,-0.315
2820320,0.255,-0.305
2820321,0.220,-0.310
2820322,0.225,-0.315
2820323,0.215,-0.295
2820324,0.240,-0.310
2820325,0.235,-0.295
2820326,0.230,-0.265
2820327,0.230,-0.195
2820328,0.235,-0.190
2820329,0.235,-0.200
2820330,0.225,-0.195
2820331,0.235,-0.180
2820332,0.215,-0.170
2820333,0.215,-0.180
2820334,0.230,-0.160
2820335,0.235,-0.160
2820336,0.215,-0.120
2820337,0.230,-0.085
2820338,0.235,-0.145
2820339,0.225,-0.155
2820340,0.215,-0.175
2820341,0.220,-0.155
2820342,0.225,-0.070
2820343,0.215,0.030
2820344,0.175,0.200
2820345,0.185,0.425
2820346,0.255,0.730
2820347,0.375,1.030
2820348,0.330,1.200
2820349,0.040,1.345
2820350,-0.455,1.530
2820351,-1.195,1.740
2820352,-1.875,1.930
2820353,-2.400,2.015
2820354,-2.720,1.965
2820355,-2.770,1.940
2820356,-2.645,1.850
2820357,-2.480,1.730
2820358,-2.335,1.625
2820359,-2.245,1.495
2820360,-2.070,1.360
2820361,-1.870,1.240
2820362,-1.725,1.200
2820363,-1.645,1.175
2820364,-1.515,1.095
2820365,-1.355,0.835
2820366,-1.245,0.415
2820367,-1.105,0.070
2820368,-0.995,-0.090
2820369,-0.860,-0.150
2820370,-0.680,-0.150
2820371,-0.515,-0.065
2820372,-0.345,0.025
2820373,-0.160,0.105
2820374,0.035,0.165
2820375,0.215,0.220
2820376,0.355,0.225
2820377,0.455,0.215
2820378,0.535,0.240
2820379,0.605,0.300
2820380,0.645,0.305
2820381,0.665,0.325
2820382,0.705,0.330
2820383,0.705,0.335
2820384,0.720,0.330
2820385,0.725,0.375
2820386,0.730,0.415
2820387,0.750,0.465
2820388,0.740,0.485
2820389,0.750,0.515
2820390,0.765,0.520
2820391,0.830,0.560
2820392,0.865,0.605
2820393,0.870,0.645
2820394,0.905,0.620
2820395,0.925,0.645
2820396,0.960,0.685
2820397,0.975,0.715
2820398,1.010,0.700
2820399,1.040,0.730
2820400,1.070,0.730
2820401,1.095,0.730
2820402,1.130,0.730
2820403,1.115,0.735
2820404,1.115,0.770
2820405,1.145,0.775
2820406,1.125,0.750
2820407,1.145,0.770
2820408,1.160,0.790
2820409,1.145,0.820
2820410,1.120,0.835
2820411,1.105,0.885
2820412,1.065,0.940
2820413,1.015,0.955
2820414,0.980,0.975
2820415,0.920,1.025
2820416,0.895,1.070
2820417,0.850,1.090
2820418,0.780,1.110
2820419,0.735,1.120
2820420,0.680,1.125
2820421,0.635,1.140
2820422,0.575,1.150
2820423,0.555,1.125
2820424,0.520,1.105
2820425,0.485,1.100
2820426,0.410,1.090
2820427,0.370,1.075
2820428,0.325,1.070
2820429,0.285,1.065
2820430,0.270,1.060
2820431,0.285,1.070
2820432,0.260,1.080
2820433,0.265,1.050
2820434,0.245,1.030
2820435,0.215,1.010
2820436,0.235,1.005
2820437,0.210,1.030
2820438,0.180,1.020
2820439,0.160,0.985
2820440,0.120,0.995
2820441,0.095,0.990
2820442,0.085,0.980
2820443,0.095,0.965
2820444,0.060,0.980
2820445,0.055,0.975
2820446,0.055,0.935
2820447,0.065,0.900
2820448,0.085,0.885
2820449,0.070,0.880
2820450,0.085,0.865
2820451,0.075,0.855
2820452,0.065,0.835
2820453,0.070,0.810
2820454,0.080,0.825
2820455,0.075,0.810
2820456,0.085,0.770
2820457,0.060,0.745
2820458,0.080,0.720
2820459,0.060,0.690
2820460,0.070,0.685
2820461,0.080,0.670
2820462,0.100,0.615
2820463,0.090,0.595
2820464,0.095,0.600
2820465,0.070,0.620
2820466,0.065,0.635
2820467,0.055,0.600
2820468,0.070,0.590
2820469,0.070,0.540
2820470,0.085,0.490
2820471,0.070,0.430
2820472,0.075,0.390
2820473,0.060,0.380
2820474,0.080,0.390
2820475,0.085,0.410
2820476,0.075,0.475
2820477,0.105,0.640
2820478,0.165,0.895
2820479,0.225,1.150
2820480,0.205,1.345
2820481,-0.035,1.470
2820482,-0.480,1.575
2820483,-1.170,1.690
2820484,-1.850,1.815
2820485,-2.405,1.850
2820486,-2.760,1.785
2820487,-2.845,1.690
2820488,-2.790,1.555
2820489,-2.600,1.420
2820490,-2.455,1.290
2820491,-2.355,1.130
2820492,-2.225,0.985
2820493,-2.055,0.945
2820494,-1.900,0.920
2820495,-1.765,0.930
2820496,-1.655,0.860
2820497,-1.490,0.555
2820498,-1.370,0.110
2820499,-1.240,-0.290
2820500,-1.105,-0.525
2820501,-0.910,-0.620
2820502,-0.745,-0.625
2820503,-0.560,-0.620
2820504,-0.370,-0.635
2820505,-0.170,-0.595
2820506,0.025,-0.590
2820507,0.195,-0.565
2820508,0.385,-0.555
2820509,0.455,-0.545
2820510,0.505,-0.540
2820511,0.550,-0.555
2820512,0.600,-0.550
2820513,0.620,-0.540
2820514,0.640,-0.520
2820515,0.670,-0.515
2820516,0.705,-0.525
2820517,0.730,-0.520
2820518,0.720,-0.530
2820519,0.715,-0.535
2820520,0.720,-0.545
2820521,0.760,-0.565
2820522,0.755,-0.575
2820523,0.775,-0.560
2820524,0.795,-0.565
2820525,0.835,-0.565
2820526,0.870,-0.585
2820527,0.870,-0.595
2820528,0.925,-0.580
2820529,0.945,-0.620
2820530,0.970,-0.630
2820531,1.005,-0.680
2820532,1.065,-0.640
2820533,1.080,-0.655
2820534,1.100,-0.620
2820535,1.095,-0.600
2820536,1.145,-0.610
2820537,1.160,-0.595
2820538,1.160,-0.550
2820539,1.135,-0.495
2820540,1.135,-0.465
2820541,1.165,-0.420
2820542,1.115,-0.400
2820543,1.065,-0.325
2820544,1.030,-0.255
2820545,1.005,-0.195
2820546,0.935,-0.170
2820547,0.860,-0.170
2820548,0.800,-0.170
2820549,0.755,-0.145
2820550,0.660,-0.145
2820551,0.585,-0.120
2820552,0.505,-0.120
2820553,0.430,-0.120
2820554,0.335,-0.130
2820555,0.305,-0.145
2820556,0.270,-0.150
2820557,0.240,-0.175
2820558,0.180,-0.170
2820559,0.150,-0.160
2820560,0.135,-0.160
2820561,0.130,-0.150
2820562,0.140,-0.165
2820563,0.145,-0.180
2820564,0.150,-0.190
2820565,0.140,-0.235
2820566,0.165,-0.260
2820567,0.150,-0.315
2820568,0.165,-0.350
2820569,0.140,-0.350
2820570,0.170,-0.375
2820571,0.120,-0.405
2820572,0.125,-0.385
2820573,0.125,-0.405
2820574,0.115,-0.425
2820575,0.105,-0.435
2820576,0.080,-0.425
2820577,0.095,-0.425
2820578,0.105,-0.445
2820579,0.110,-0.440
2820580,0.120,-0.445
2820581,0.105,-0.430
2820582,0.120,-0.460
2820583,0.100,-0.460
2820584,0.110,-0.440
2820585,0.115,-0.405
2820586,0.135,-0.385
2820587,0.130,-0.400
2820588,0.120,-0.420
2820589,0.100,-0.425
2820590,0.115,-0.440
2820591,0.075,-0.400
2820592,0.070,-0.395
2820593,0.080,-0.375
2820594,0.035,-0.375
2820595,0.050,-0.350
2820596,0.080,-0.355
2820597,0.075,-0.330
2820598,0.100,-0.315
2820599,0.090,-0.320
2820600,0.120,-0.320
2820601,0.110,-0.315
2820602,0.125,-0.320
2820603,0.110,-0.330
2820604,0.135,-0.335
2820605,0.130,-0.345
2820606,0.120,-0.350
2820607,0.120,-0.345
2820608,0.135,-0.355
2820609,0.125,-0.360
2820610,0.105,-0.365
2820611,0.090,-0.365
2820612,0.125,-0.365
2820613,0.100,-0.365
2820614,0.100,-0.370
2820615,0.105,-0.380
2820616,0.105,-0.390
2820617,0.105,-0.405
2820618,0.095,-0.430
2820619,0.110,-0.460
2820620,0.105,-0.460
2820621,0.105,-0.470
2820622,0.105,-0.480
2820623,0.115,-0.480
2820624,0.095,-0.490
2820625,0.045,-0.480
2820626,-0.005,-0.455
2820627,-0.005,-0.415
2820628,-0.010,-0.355
2820629,-0.025,-0.255
2820630,-0.025,-0.045
2820631,0.040,0.325
2820632,0.135,0.685
2820633,0.030,0.900
2820634,-0.255,1.080
2820635,-0.680,1.275
2820636,-1.385,1.460
2820637,-2.035,1.550
2820638,-2.505,1.525
2820639,-2.695,1.525
2820640,-2.665,1.480
2820641,-2.570,1.340
2820642,-2.390,1.265
2820643,-2.260,1.150
2820644,-2.110,1.030
2820645,-1.920,0.990
2820646,-1.770,0.940
2820647,-1.620,0.970
2820648,-1.485,0.925
2820649,-1.345,0.610
2820650,-1.235,0.095
2820651,-1.085,-0.365
2820652,-0.990,-0.665
2820653,-0.835,-0.850
2820654,-0.675,-0.885
2820655,-0.525,-0.810
2820656,-0.375,-0.800
2820657,-0.165,-0.790
2820658,0.025,-0.775
2820659,0.215,-0.745
2820660,0.380,-0.750
2820661,0.500,-0.770
2820662,0.575,-0.770
2820663,0.635,-0.780
2820664,0.655,-0.740
2820665,0.715,-0.725
2820666,0.750,-0.720
2820667,0.775,-0.700
2820668,0.805,-0.690
2820669,0.820,-0.715
2820670,0.850,-0.705
2820671,0.860,-0.640
2820672,0.885,-0.575
2820673,0.860,-0.570
2820674,0.890,-0.600
2820675,0.945,-0.595
2820676,0.965,-0.570
2820677,0.975,-0.570
2820678,0.985,-0.595
2820679,1.005,-0.575
2820680,1.010,-0.560
2820681,1.060,-0.560
2820682,1.085,-0.585
2820683,1.105,-0.575
2820684,1.125,-0.580
2820685,1.125,-0.615
2820686,1.155,-0.610
2820687,1.200,-0.600
2820688,1.205,-0.605
2820689,1.255,-0.585
2820690,1.220,-0.605
2820691,1.220,-0.560
2820692,1.210,-0.515
2820693,1.205,-0.505
2820694,1.165,-0.455
2820695,1.150,-0.400
2820696,1.105,-0.365
2820697,1.050,-0.330
2820698,1.010,-0.285
2820699,0.990,-0.255
2820700,0.910,-0.230
2820701,0.875,-0.215
2820702,0.805,-0.180
2820703,0.740,-0.145
2820704,0.710,-0.120
2820705,0.625,-0.080
2820706,0.600,-0.105
2820707,0.530,-0.140
2820708,0.490,-0.150
2820709,0.445,-0.170
2820710,0.400,-0.160
2820711,0.390,-0.140
2820712,0.340,-0.150
2820713,0.325,-0.145
2820714,0.325,-0.120
2820715,0.315,-0.140
2820716,0.315,-0.125
2820717,0.315,-0.140
2820718,0.310,-0.125
2820719,0.295,-0.130
2820720,0.280,-0.150
2820721,0.265,-0.160
2820722,0.230,-0.175
2820723,0.225,-0.220
2820724,0.210,-0.250
2820725,0.195,-0.260
2820726,0.185,-0.250
2820727,0.210,-0.245
2820728,0.190,-0.260
2820729,0.165,-0.255
2820730,0.155,-0.260
2820731,0.180,-0.250
2820732,0.170,-0.265
2820733,0.180,-0.265
2820734,0.185,-0.260
2820735,0.190,-0.260
2820736,0.195,-0.280
2820737,0.220,-0.290
2820738,0.255,-0.290
2820739,0.235,-0.285
2820740,0.250,-0.300
2820741,0.240,-0.300
2820742,0.270,-0.280
2820743,0.255,-0.260
2820744,0.250,-0.265
2820745,0.250,-0.285
2820746,0.255,-0.250
2820747,0.265,-0.270
2820748,0.255,-0.285
2820749,0.245,-0.285
2820750,0.220,-0.215
2820751,0.215,-0.145
2820752,0.190,-0.155
2820753,0.190,-0.125
2820754,0.205,-0.145
2820755,0.235,-0.135
2820756,0.225,-0.130
2820757,0.200,-0.150
2820758,0.240,-0.125
2820759,0.200,-0.110
2820760,0.205,-0.115
2820761,0.175,-0.130
2820762,0.160,-0.155
2820763,0.140,-0.160
2820764,0.135,-0.160
2820765,0.115,-0.165
2820766,0.125,-0.170
2820767,0.075,-0.190
2820768,0.095,-0.175
2820769,0.070,-0.165
2820770,0.100,-0.145
2820771,0.065,-0.125
2820772,0.075,-0.165
2820773,0.070,-0.160
2820774,0.090,-0.185
2820775,0.095,-0.170
2820776,0.080,-0.155
2820777,0.095,-0.150
2820778,0.100,-0.155
2820779,0.085,-0.150
2820780,0.135,-0.120
2820781,0.140,-0.140
2820782,0.150,-0.115
2820783,0.135,-0.080
2820784,0.140,-0.060
2820785,0.145,-0.045
2820786,0.165,-0.070
2820787,0.190,-0.090
2820788,0.165,-0.085
2820789,0.175,-0.065
2820790,0.180,-0.040
2820791,0.145,0.000
2820792,0.155,0.005
2820793,0.180,0.005
2820794,0.200,-0.025
2820795,0.195,0.005
2820796,0.195,0.000
2820797,0.180,-0.005
2820798,0.160,-0.010
2820799,0.155,-0.030
2820800,0.145,-0.050
2820801,0.155,-0.050
2820802,0.165,-0.045
2820803,0.150,-0.055
2820804,0.100,-0.075
2820805,0.110,-0.075
2820806,0.095,-0.090
2820807,0.100,-0.115
2820808,0.090,-0.125
2820809,0.075,-0.105
2820810,0.070,-0.125
2820811,0.085,-0.125
2820812,0.085,-0.105
2820813,0.085,-0.130
2820814,0.080,-0.115
2820815,0.085,-0.095
2820816,0.075,-0.090
2820817,0.090,-0.080
2820818,0.095,-0.030
2820819,0.095,0.015
2820820,0.115,0.085
2820821,0.115,0.230
2820822,0.165,0.420
2820823,0.245,0.680
2820824,0.330,0.895
2820825,0.195,1.005
2820826,-0.075,1.160
2820827,-0.655,1.380
2820828,-1.345,1.630
2820829,-1.940,1.810
2820830,-2.420,1.940
2820831,-2.620,1.985
2820832,-2.610,2.005
2820833,-2.490,1.960
2820834,-2.325,1.910
2820835,-2.185,1.860
2820836,-2.105,1.755
2820837,-1.940,1.625
2820838,-1.760,1.560
2820839,-1.630,1.495
2820840,-1.520,1.470
2820841,-1.385,1.315
2820842,-1.260,0.980
2820843,-1.160,0.495
2820844,-1.080,0.085
2820845,-0.980,-0.160
2820846,-0.830,-0.280
2820847,-0.695,-0.305
2820848,-0.535,-0.225
2820849,-0.390,-0.180
2820850,-0.190,-0.190
2820851,-0.025,-0.195
2820852,0.170,-0.150
2820853,0.330,-0.175
2820854,0.420,-0.215
2820855,0.505,-0.205
2820856,0.555,-0.190
2820857,0.575,-0.170
2820858,0.600,-0.170
2820859,0.625,-0.210
2820860,0.655,-0.205
2820861,0.685,-0.160
2820862,0.695,-0.185
2820863,0.730,-0.180
2820864,0.770,-0.135
2820865,0.760,-0.100
2820866,0.790,-0.105
2820867,0.810,-0.110
2820868,0.840,-0.080
2820869,0.910,-0.085
2820870,0.915,-0.110
2820871,0.960,-0.080
2820872,0.980,-0.035
2820873,1.010,-0.020
2820874,1.050,-0.015
2820875,1.075,-0.015
2820876,1.135,-0.010
2820877,1.170,0.010
2820878,1.215,0.020
2820879,1.260,0.040
2820880,1.310,0.045
2820881,1.340,0.080
2820882,1.395,0.075
2820883,1.420,0.070
2820884,1.470,0.045
2820885,1.465,0.075
2820886,1.460,0.070
2820887,1.465,0.065
2820888,1.490,0.065
2820889,1.450,0.095
2820890,1.345,0.145
2820891,1.260,0.130
2820892,1.180,0.130
2820893,1.130,0.125
2820894,1.070,0.160
2820895,0.995,0.165
2820896,0.920,0.200
2820897,0.835,0.210
2820898,0.750,0.200
2820899,0.670,0.210
2820900,0.595,0.205
2820901,0.545,0.195
2820902,0.500,0.180
2820903,0.440,0.175
2820904,0.400,0.150
2820905,0.360,0.165
2820906,0.320,0.180
2820907,0.280,0.185
2820908,0.255,0.165
2820909,0.255,0.155
2820910,0.240,0.135
2820911,0.235,0.140
2820912,0.220,0.130
2820913,0.225,0.135
2820914,0.195,0.160
2820915,0.195,0.170
2820916,0.160,0.170
2820917,0.180,0.210
2820918,0.195,0.240
2820919,0.225,0.210
2820920,0.205,0.205
2820921,0.230,0.205
2820922,0.255,0.205
2820923,0.255,0.205
2820924,0.240,0.195
2820925,0.260,0.195
2820926,0.275,0.185
2820927,0.310,0.155
2820928,0.290,0.140
2820929,0.300,0.140
2820930,0.295,0.120
2820931,0.295,0.095
2820932,0.295,0.090
2820933,0.255,0.120
2820934,0.235,0.115
2820935,0.260,0.100
2820936,0.225,0.085
2820937,0.225,0.080
2820938,0.170,0.065
2820939,0.195,0.065
2820940,0.195,0.080
2820941,0.190,0.025
2820942,0.185,0.040
2820943,0.200,0.025
2820944,0.175,0.005
2820945,0.175,-0.005
2820946,0.175,-0.010
2820947,0.185,0.000
2820948,0.205,0.040
2820949,0.200,0.060
2820950,0.165,0.090
2820951,0.180,0.220
2820952,0.175,0.345
2820953,0.180,0.455
2820954,0.270,0.615
2820955,0.340,0.820
2820956,0.245,1.030
2820957,-0.050,1.280
2820958,-0.580,1.550
2820959,-1.255,1.780
2820960,-1.810,1.905
2820961,-2.280,1.975
2820962,-2.515,1.975
2820963,-2.510,2.000
2820964,-2.430,1.985
2820965,-2.290,1.915
2820966,-2.185,1.820
2820967,-2.085,1.680
2820968,-1.940,1.570
2820969,-1.790,1.500
2820970,-1.665,1.425
2820971,-1.565,1.310
2820972,-1.450,1.160
2820973,-1.310,0.920
2820974,-1.170,0.515
2820975,-1.090,0.100
2820976,-0.995,-0.145
2820977,-0.885,-0.260
2820978,-0.770,-0.300
2820979,-0.660,-0.270
2820980,-0.505,-0.210
2820981,-0.355,-0.175
2820982,-0.170,-0.190
2820983,0.000,-0.190
2820984,0.155,-0.210
2820985,0.325,-0.210
2820986,0.390,-0.175
2820987,0.455,-0.170
2820988,0.470,-0.185
2820989,0.525,-0.190
2820990,0.555,-0.170
2820991,0.590,-0.120
2820992,0.595,-0.115
2820993,0.635,-0.075
2820994,0.660,-0.040
2820995,0.690,-0.030
2820996,0.725,-0.060
2820997,0.740,-0.055
2820998,0.760,-0.020
2820999,0.760,0.000
2821000,0.785,0.010
2821001,0.805,0.030
2821002,0.840,0.035
2821003,0.885,0.060
2821004,0.940,0.040
2821005,0.960,0.055
2821006,0.975,0.075
2821007,1.010,0.070
2821008,1.055,0.055
2821009,1.070,0.070
2821010,1.115,0.060
2821011,1.160,0.070
2821012,1.180,0.065
2821013,1.190,0.070
2821014,1.205,0.060
2821015,1.220,0.080
2821016,1.215,0.085
2821017,1.200,0.065
2821018,1.190,0.075
2821019,1.160,0.105
2821020,1.150,0.135
2821021,1.125,0.120
2821022,1.065,0.135
2821023,1.035,0.195
2821024,0.950,0.215
2821025,0.890,0.240
2821026,0.815,0.220
2821027,0.740,0.250
2821028,0.700,0.255
2821029,0.630,0.290
2821030,0.560,0.265
2821031,0.530,0.250
2821032,0.480,0.250
2821033,0.450,0.215
2821034,0.375,0.220
2821035,0.325,0.230
2821036,0.285,0.240
2821037,0.245,0.255
2821038,0.185,0.240
2821039,0.185,0.190
2821040,0.180,0.200
2821041,0.160,0.245
2821042,0.140,0.250
2821043,0.130,0.265
2821044,0.115,0.300
2821045,0.110,0.280
2821046,0.135,0.285
2821047,0.125,0.280
2821048,0.160,0.285
2821049,0.180,0.300
2821050,0.170,0.295
2821051,0.185,0.260
2821052,0.180,0.245
2821053,0.185,0.270
2821054,0.195,0.260
2821055,0.145,0.235
2821056,0.125,0.230
2821057,0.150,0.215
2821058,0.115,0.225
2821059,0.095,0.195
2821060,0.100,0.175
2821061,0.090,0.200
2821062,0.090,0.190
2821063,0.075,0.185
2821064,0.065,0.175
2821065,0.060,0.200
2821066,0.045,0.170
2821067,0.040,0.165
2821068,0.040,0.165
2821069,0.045,0.145
2821070,0.050,0.155
2821071,0.035,0.170
2821072,0.015,0.175
2821073,0.040,0.170
2821074,0.035,0.165
2821075,0.020,0.170
2821076,0.020,0.180
2821077,0.030,0.170
2821078,0.015,0.155
2821079,0.030,0.190
2821080,0.015,0.195
2821081,0.030,0.230
2821082,0.020,0.230
2821083,0.030,0.230
2821084,0.030,0.200
2821085,0.050,0.200
2821086,0.020,0.240
2821087,0.010,0.285
2821088,-0.010,0.290
2821089,0.005,0.310
2821090,0.000,0.320
2821091,0.035,0.340
2821092,0.070,0.335
2821093,0.080,0.355
2821094,0.100,0.340
2821095,0.080,0.325
2821096,0.100,0.325
2821097,0.085,0.325
2821098,0.070,0.340
2821099,0.080,0.320
2821100,0.055,0.310
2821101,0.050,0.315
2821102,0.030,0.315
2821103,0.020,0.280
2821104,0.020,0.280
2821105,0.010,0.285
2821106,0.000,0.280
2821107,-0.010,0.250
2821108,-0.010,0.225
2821109,-0.010,0.260
2821110,-0.005,0.250
2821111,-0.005,0.225
2821112,0.000,0.220
2821113,-0.030,0.215
2821114,-0.030,0.215
2821115,-0.045,0.195
2821116,-0.040,0.185
2821117,-0.055,0.200
2821118,-0.035,0.190
2821119,-0.020,0.185
2821120,-0.045,0.200
2821121,-0.060,0.210
2821122,-0.045,0.225
2821123,-0.040,0.230
2821124,0.000,0.220
2821125,-0.040,0.225
2821126,-0.025,0.225
2821127,-0.020,0.205
2821128,-0.025,0.230
2821129,-0.020,0.255
2821130,-0.035,0.300
2821131,-0.040,0.300
2821132,-0.050,0.290
2821133,-0.030,0.290
2821134,-0.015,0.270
2821135,-0.015,0.295
2821136,-0.020,0.295
2821137,-0.015,0.305
2821138,0.010,0.310
2821139,0.015,0.335
2821140,0.025,0.335
2821141,0.035,0.360
2821142,0.050,0.380
2821143,0.070,0.375
2821144,0.085,0.355
2821145,0.045,0.325
2821146,0.045,0.315
2821147,0.060,0.330
2821148,0.020,0.320
2821149,0.005,0.310
2821150,0.000,0.280
2821151,-0.005,0.340
2821152,-0.025,0.340
2821153,-0.045,0.310
2821154,-0.030,0.240
2821155,-0.005,0.225
2821156,-0.015,0.270
2821157,-0.030,0.270
2821158,-0.030,0.235
2821159,-0.030,0.270
2821160,-0.020,0.270
2821161,-0.040,0.285
2821162,-0.010,0.265
2821163,-0.005,0.255
2821164,-0.025,0.275
2821165,-0.010,0.280
2821166,-0.005,0.280
2821167,-0.005,0.310
2821168,0.000,0.290
2821169,0.000,0.260
2821170,0.035,0.275
2821171,0.005,0.240
2821172,-0.005,0.270
2821173,-0.040,0.305
2821174,-0.010,0.290
2821175,-0.040,0.315
2821176,-0.010,0.330
2821177,0.000,0.340
2821178,0.000,0.320
2821179,0.005,0.310
2821180,0.015,0.320
2821181,0.005,0.315
2821182,0.030,0.315
2821183,-0.005,0.275
2821184,-0.005,0.290
2821185,0.000,0.295
2821186,0.000,0.290
2821187,0.000,0.270
2821188,0.020,0.305
2821189,0.000,0.330
2821190,0.005,0.400
2821191,0.005,0.535
2821192,0.055,0.730
2821193,0.110,1.050
2821194,0.075,1.310
2821195,-0.125,1.475
2821196,-0.455,1.600
2821197,-0.905,1.775
2821198,-1.535,1.970
2821199,-2.095,2.110
2821200,-2.550,2.125
2821201,-2.865,2.100
2821202,-2.920,2.085
2821203,-2.800,2.005
2821204,-2.665,1.870
2821205,-2.460,1.750
2821206,-2.290,1.655
2821207,-2.130,1.570
2821208,-1.950,1.550
2821209,-1.820,1.595
2821210,-1.700,1.670
2821211,-1.625,1.625
2821212,-1.495,1.405
2821213,-1.340,0.980
2821214,-1.215,0.540
2821215,-1.140,0.260
2821216,-1.010,0.040
2821217,-0.885,-0.105
2821218,-0.745,-0.120
2821219,-0.580,-0.070
2821220,-0.410,-0.105
2821221,-0.240,-0.105
2821222,-0.095,-0.060
2821223,0.050,-0.035
2821224,0.205,-0.050
2821225,0.295,-0.045
2821226,0.335,-0.075
2821227,0.390,-0.100
2821228,0.400,-0.085
2821229,0.420,-0.100
2821230,0.425,-0.130
2821231,0.460,-0.110
2821232,0.470,-0.110
2821233,0.470,-0.140
2821234,0.460,-0.145
2821235,0.460,-0.160
2821236,0.445,-0.150
2821237,0.420,-0.140
2821238,0.430,-0.135
2821239,0.460,-0.145
2821240,0.520,-0.140
2821241,0.525,-0.130
2821242,0.525,-0.155
2821243,0.535,-0.195
2821244,0.585,-0.250
2821245,0.620,-0.310
2821246,0.675,-0.380
2821247,0.685,-0.415
2821248,0.750,-0.430
2821249,0.790,-0.420
2821250,0.805,-0.445
2821251,0.825,-0.435
2821252,0.870,-0.415
2821253,0.890,-0.415
2821254,0.915,-0.390
2821255,0.945,-0.405
2821256,0.980,-0.405
2821257,1.000,-0.390
2821258,1.000,-0.385
2821259,1.020,-0.335
2821260,0.995,-0.315
2821261,0.995,-0.270
2821262,1.025,-0.240
2821263,0.980,-0.205
2821264,0.955,-0.180
2821265,0.935,-0.130
2821266,0.890,-0.065
2821267,0.825,-0.020
2821268,0.765,-0.040
2821269,0.710,-0.005
2821270,0.630,-0.005
2821271,0.535,-0.020
2821272,0.510,-0.045
2821273,0.415,-0.065
2821274,0.340,-0.075
2821275,0.270,-0.125
2821276,0.205,-0.160
2821277,0.140,-0.215
2821278,0.120,-0.250
2821279,0.075,-0.255
2821280,0.035,-0.285
2821281,0.035,-0.315
2821282,0.000,-0.305
2821283,-0.040,-0.325
2821284,-0.040,-0.345
2821285,-0.030,-0.330
2821286,-0.025,-0.340
2821287,-0.050,-0.380
2821288,-0.045,-0.400
2821289,-0.050,-0.385
2821290,-0.020,-0.405
2821291,-0.005,-0.400
2821292,0.015,-0.395
2821293,0.000,-0.355
2821294,0.000,-0.355
2821295,0.000,-0.355
2821296,0.000,-0.385
2821297,0.005,-0.375
2821298,0.000,-0.400
2821299,0.025,-0.405
2821300,0.005,-0.370
2821301,0.010,-0.320
2821302,0.005,-0.325
2821303,0.000,-0.340
2821304,0.045,-0.360
2821305,0.045,-0.340
2821306,0.060,-0.360
2821307,0.055,-0.355
2821308,0.065,-0.350
2821309,0.075,-0.350
2821310,0.080,-0.345
2821311,0.090,-0.365
2821312,0.085,-0.375
2821313,0.090,-0.385
2821314,0.100,-0.360
2821315,0.115,-0.385
2821316,0.110,-0.425
2821317,0.115,-0.440
2821318,0.085,-0.450
2821319,0.080,-0.470
2821320,0.050,-0.465
2821321,0.040,-0.445
2821322,0.020,-0.440
2821323,0.005,-0.430
2821324,-0.045,-0.445
2821325,-0.035,-0.490
2821326,-0.080,-0.505
2821327,-0.080,-0.470
2821328,-0.110,-0.480
2821329,-0.110,-0.515
2821330,-0.115,-0.500
2821331,-0.105,-0.490
2821332,-0.155,-0.490
2821333,-0.140,-0.480
2821334,-0.135,-0.455
2821335,-0.095,-0.390
2821336,-0.100,-0.340
2821337,-0.115,-0.285
2821338,-0.080,-0.140
2821339,-0.050,0.070
2821340,-0.005,0.365
2821341,0.070,0.705
2821342,0.035,0.960
2821343,-0.230,1.145
2821344,-0.665,1.355
2821345,-1.310,1.570
2821346,-1.935,1.735
2821347,-2.435,1.790
2821348,-2.760,1.750
2821349,-2.800,1.710
2821350,-2.680,1.600
2821351,-2.530,1.530
2821352,-2.380,1.405
2821353,-2.285,1.285
2821354,-2.140,1.180
2821355,-1.945,1.130
2821356,-1.830,1.110
2821357,-1.720,1.070
2821358,-1.565,1.000
2821359,-1.435,0.745
2821360,-1.305,0.260
2821361,-1.225,-0.225
2821362,-1.120,-0.525
2821363,-0.990,-0.680
2821364,-0.845,-0.745
2821365,-0.700,-0.700
2821366,-0.565,-0.670
2821367,-0.395,-0.665
2821368,-0.210,-0.635
2821369,-0.050,-0.630
2821370,0.110,-0.625
2821371,0.250,-0.615
2821372,0.305,-0.625
2821373,0.370,-0.615
2821374,0.390,-0.630
2821375,0.410,-0.645
2821376,0.460,-0.630
2821377,0.470,-0.585
2821378,0.500,-0.580
2821379,0.510,-0.575
2821380,0.550,-0.585
2821381,0.555,-0.620
2821382,0.555,-0.625
2821383,0.550,-0.575
2821384,0.560,-0.550
2821385,0.585,-0.530
2821386,0.580,-0.520
2821387,0.635,-0.540
2821388,0.680,-0.540
2821389,0.720,-0.560
2821390,0.730,-0.535
2821391,0.760,-0.525
2821392,0.805,-0.535
2821393,0.855,-0.550
2821394,0.905,-0.555
2821395,0.930,-0.540
2821396,0.955,-0.530
2821397,0.990,-0.545
2821398,1.015,-0.555
2821399,1.030,-0.545
2821400,1.035,-0.525
2821401,1.000,-0.530
2821402,0.990,-0.525
2821403,0.980,-0.460
2821404,0.960,-0.415
2821405,0.900,-0.390
2821406,0.870,-0.360
2821407,0.850,-0.310
2821408,0.820,-0.270
2821409,0.765,-0.190
2821410,0.730,-0.190
2821411,0.660,-0.155
2821412,0.625,-0.140
2821413,0.585,-0.100
2821414,0.535,-0.130
2821415,0.475,-0.105
2821416,0.420,-0.080
2821417,0.375,-0.060
2821418,0.330,-0.095
2821419,0.310,-0.080
2821420,0.300,-0.090
2821421,0.255,-0.095
2821422,0.225,-0.130
2821423,0.185,-0.105
2821424,0.175,-0.075
2821425,0.140,-0.015
2821426,0.135,-0.030
2821427,0.140,-0.040
2821428,0.170,0.000
2821429,0.160,0.010
2821430,0.160,0.000
2821431,0.160,-0.015
2821432,0.165,-0.010
2821433,0.145,0.000
2821434,0.175,-0.005
2821435,0.165,-0.020
2821436,0.185,-0.020
2821437,0.190,-0.035
2821438,0.180,-0.060
2821439,0.195,-0.095
2821440,0.200,-0.090
2821441,0.135,-0.095
2821442,0.125,-0.105
2821443,0.100,-0.125
2821444,0.095,-0.120
2821445,0.065,-0.105
2821446,0.065,-0.135
2821447,0.045,-0.160
2821448,0.070,-0.160
2821449,0.040,-0.120
2821450,0.000,-0.145
2821451,0.020,-0.145
2821452,0.025,-0.155
2821453,0.025,-0.145
2821454,0.015,-0.125
2821455,0.030,-0.150
2821456,0.025,-0.160
2821457,0.025,-0.090
2821458,0.015,-0.055
2821459,0.025,-0.060
2821460,0.010,-0.040
2821461,0.010,0.005
2821462,0.010,0.055
2821463,0.010,0.080
2821464,0.020,0.110
2821465,0.015,0.130
2821466,0.010,0.130
2821467,0.020,0.115
2821468,0.035,0.145
2821469,0.035,0.175
2821470,0.040,0.170
2821471,0.035,0.175
2821472,0.050,0.190
2821473,0.045,0.205
2821474,0.085,0.210
2821475,0.060,0.190
2821476,0.090,0.205
2821477,0.070,0.160
2821478,0.075,0.150
2821479,0.070,0.130
2821480,0.075,0.155
2821481,0.055,0.130
2821482,0.040,0.140
2821483,-0.005,0.140
2821484,0.010,0.130
2821485,0.010,0.115
2821486,0.000,0.125
2821487,-0.010,0.125
2821488,-0.015,0.155
2821489,0.000,0.165
2821490,0.005,0.185
2821491,0.010,0.165
2821492,0.025,0.180
2821493,0.030,0.210
2821494,0.055,0.230
2821495,0.035,0.240
2821496,0.075,0.315
2821497,0.065,0.465
2821498,0.105,0.675
2821499,0.185,0.930
2821500,0.235,1.155
2821501,0.125,1.310
2821502,-0.270,1.515
2821503,-0.980,1.820
2821504,-1.755,2.080
2821505,-2.390,2.160
2821506,-2.805,2.160
2821507,-2.890,2.150
2821508,-2.770,2.110
2821509,-2.630,2.050
2821510,-2.410,2.005
2821511,-2.285,1.940
2821512,-2.135,1.845
2821513,-1.940,1.770
2821514,-1.810,1.715
2821515,-1.710,1.710
2821516,-1.550,1.620
2821517,-1.395,1.355
2821518,-1.250,0.835
2821519,-1.085,0.350
2821520,-0.990,0.030
2821521,-0.860,-0.115
2821522,-0.720,-0.195
2821523,-0.615,-0.155
2821524,-0.435,-0.105
2821525,-0.245,-0.075
2821526,-0.065,-0.055
2821527,0.110,-0.050
2821528,0.290,-0.070
2821529,0.395,-0.070
2821530,0.490,-0.060
2821531,0.500,-0.075
2821532,0.535,-0.070
2821533,0.550,-0.065
2821534,0.580,-0.065
2821535,0.610,-0.045
2821536,0.620,-0.010
2821537,0.680,0.015
2821538,0.680,0.035
2821539,0.740,0.015
2821540,0.760,0.005
2821541,0.800,0.025
2821542,0.820,0.055
2821543,0.870,0.075
2821544,0.900,0.110
2821545,0.925,0.130
2821546,0.965,0.125
2821547,1.010,0.135
2821548,1.080,0.125
2821549,1.105,0.130
2821550,1.125,0.120
2821551,1.180,0.110
2821552,1.235,0.120
2821553,1.285,0.125
2821554,1.295,0.110
2821555,1.330,0.105
2821556,1.355,0.120
2821557,1.365,0.135
2821558,1.390,0.130
2821559,1.410,0.165
2821560,1.390,0.170
2821561,1.350,0.190
2821562,1.320,0.235
2821563,1.300,0.235
2821564,1.285,0.315
2821565,1.240,0.340
2821566,1.175,0.345
2821567,1.105,0.430
2821568,0.980,0.430
2821569,0.890,0.455
2821570,0.820,0.470
2821571,0.750,0.475
2821572,0.715,0.495
2821573,0.620,0.480
2821574,0.565,0.460
2821575,0.500,0.475
2821576,0.445,0.465
2821577,0.395,0.475
2821578,0.330,0.455
2821579,0.300,0.455
2821580,0.285,0.420
2821581,0.260,0.405
2821582,0.225,0.420
2821583,0.190,0.415
2821584,0.170,0.445
2821585,0.175,0.460
2821586,0.190,0.450
2821587,0.210,0.465
2821588,0.220,0.475
2821589,0.230,0.470
2821590,0.250,0.465
2821591,0.245,0.465
2821592,0.240,0.480
2821593,0.255,0.470
2821594,0.280,0.470
2821595,0.285,0.460
2821596,0.300,0.465
2821597,0.310,0.450
2821598,0.305,0.420
2821599,0.325,0.415
2821600,0.350,0.450
2821601,0.330,0.435
2821602,0.330,0.395
2821603,0.330,0.370
2821604,0.330,0.395
2821605,0.345,0.370
2821606,0.345,0.330
2821607,0.355,0.320
2821608,0.345,0.325
2821609,0.305,0.310
2821610,0.280,0.320
2821611,0.275,0.320
2821612,0.240,0.355
2821613,0.225,0.365
2821614,0.220,0.350
2821615,0.210,0.360
2821616,0.200,0.380
2821617,0.170,0.400
2821618,0.140,0.395
2821619,0.145,0.405
2821620,0.160,0.425
2821621,0.170,0.415
2821622,0.155,0.390
2821623,0.145,0.400
2821624,0.150,0.440
2821625,0.145,0.460
2821626,0.165,0.485
2821627,0.200,0.490
2821628,0.210,0.515
2821629,0.180,0.525
2821630,0.185,0.535
2821631,0.190,0.535
2821632,0.215,0.570
2821633,0.240,0.560
2821634,0.230,0.540
2821635,0.225,0.540
2821636,0.210,0.590
2821637,0.230,0.595
2821638,0.230,0.560
2821639,0.245,0.575
2821640,0.225,0.580
2821641,0.235,0.575
2821642,0.230,0.585
2821643,0.245,0.565
2821644,0.240,0.585
2821645,0.225,0.560
2821646,0.200,0.565
2821647,0.190,0.575
2821648,0.175,0.555
2821649,0.170,0.570
2821650,0.150,0.590
2821651,0.145,0.570
2821652,0.150,0.570
2821653,0.145,0.555
2821654,0.140,0.555
2821655,0.140,0.580
2821656,0.140,0.580
2821657,0.140,0.615
2821658,0.155,0.645
2821659,0.165,0.620
2821660,0.200,0.570
2821661,0.170,0.575
2821662,0.180,0.645
2821663,0.170,0.655
2821664,0.155,0.650
2821665,0.155,0.670
2821666,0.170,0.660
2821667,0.190,0.675
2821668,0.190,0.675
2821669,0.160,0.665
2821670,0.200,0.690
2821671,0.210,0.730
2821672,0.200,0.690
2821673,0.220,0.700
2821674,0.205,0.685
2821675,0.225,0.690
2821676,0.210,0.655
2821677,0.220,0.655
2821678,0.215,0.665
2821679,0.230,0.655
2821680,0.200,0.615
2821681,0.230,0.590
2821682,0.240,0.580
2821683,0.215,0.585
2821684,0.190,0.580
2821685,0.190,0.560
2821686,0.175,0.560
2821687,0.155,0.550
2821688,0.120,0.575
2821689,0.080,0.565
2821690,0.110,0.580
2821691,0.095,0.615
2821692,0.085,0.625
2821693,0.095,0.605
2821694,0.115,0.580
2821695,0.130,0.655
2821696,0.115,0.765
2821697,0.135,0.885
2821698,0.175,1.035
2821699,0.290,1.250
2821700,0.345,1.445
2821701,0.205,1.590
2821702,-0.180,1.750
2821703,-0.825,2.060
2821704,-1.605,2.310
2821705,-2.195,2.425
2821706,-2.705,2.435
2821707,-2.880,2.465
2821708,-2.825,2.485
2821709,-2.685,2.415
2821710,-2.480,2.330
2821711,-2.320,2.260
2821712,-2.180,2.160
2821713,-1.960,2.040
2821714,-1.760,1.920
2821715,-1.630,1.880
2821716,-1.505,1.825
2821717,-1.395,1.630
2821718,-1.240,1.215
2821719,-1.105,0.770
2821720,-1.005,0.425
2821721,-0.865,0.225
2821722,-0.710,0.155
2821723,-0.550,0.180
2821724,-0.420,0.255
2821725,-0.235,0.280
2821726,-0.035,0.275
2821727,0.165,0.295
2821728,0.345,0.320
2821729,0.460,0.320
2821730,0.550,0.330
2821731,0.580,0.335
2821732,0.600,0.325
2821733,0.620,0.340
2821734,0.630,0.335
2821735,0.665,0.355
2821736,0.685,0.345
2821737,0.710,0.350
2821738,0.715,0.365
2821739,0.715,0.395
2821740,0.755,0.390
2821741,0.745,0.415
2821742,0.745,0.460
2821743,0.755,0.460
2821744,0.815,0.475
2821745,0.860,0.455
2821746,0.885,0.490
2821747,0.950,0.495
2821748,0.980,0.455
2821749,0.975,0.475
2821750,1.015,0.475
2821751,1.055,0.475
2821752,1.105,0.480
2821753,1.130,0.480
2821754,1.155,0.465
2821755,1.200,0.470
2821756,1.220,0.465
2821757,1.255,0.470
2821758,1.260,0.440
2821759,1.275,0.450
2821760,1.270,0.450
2821761,1.260,0.480
2821762,1.245,0.500
2821763,1.245,0.545
2821764,1.210,0.555
2821765,1.165,0.565
2821766,1.120,0.595
2821767,1.070,0.635
2821768,1.030,0.665
2821769,0.970,0.675
2821770,0.920,0.700
2821771,0.870,0.720
2821772,0.820,0.775
2821773,0.735,0.750
2821774,0.680,0.795
2821775,0.585,0.805
2821776,0.535,0.790
2821777,0.485,0.760
2821778,0.435,0.730
2821779,0.365,0.725
2821780,0.325,0.705
2821781,0.240,0.690
2821782,0.170,0.685
2821783,0.125,0.710
2821784,0.090,0.690
2821785,0.060,0.670
2821786,0.055,0.660
2821787,0.035,0.705
2821788,0.050,0.675
2821789,0.040,0.690
2821790,0.035,0.680
2821791,0.050,0.700
2821792,0.090,0.710
2821793,0.090,0.710
2821794,0.085,0.700
2821795,0.085,0.710
2821796,0.110,0.750
2821797,0.110,0.705
2821798,0.150,0.650
2821799,0.160,0.640
2821800,0.155,0.640
2821801,0.185,0.635
2821802,0.180,0.590
2821803,0.205,0.605
2821804,0.200,0.635
2821805,0.195,0.615
2821806,0.170,0.595
2821807,0.200,0.600
2821808,0.190,0.605
2821809,0.205,0.605
2821810,0.200,0.565
2821811,0.195,0.575
2821812,0.220,0.585
2821813,0.185,0.550
2821814,0.175,0.540
2821815,0.195,0.540
2821816,0.170,0.570
2821817,0.165,0.575
2821818,0.155,0.545
2821819,0.135,0.545
2821820,0.110,0.535
2821821,0.115,0.550
2821822,0.090,0.555
2821823,0.060,0.570
2821824,0.055,0.585
2821825,0.060,0.600
2821826,0.065,0.590
2821827,0.060,0.590
2821828,0.090,0.600
2821829,0.090,0.635
2821830,0.095,0.640
2821831,0.095,0.665
2821832,0.100,0.675
2821833,0.120,0.675
2821834,0.115,0.680
2821835,0.115,0.690
2821836,0.145,0.720
2821837,0.135,0.720
2821838,0.135,0.760
2821839,0.145,0.825
2821840,0.145,0.980
2821841,0.185,1.250
2821842,0.255,1.570
2821843,0.265,1.845
2821844,0.100,1.990
2821845,-0.305,2.140
2821846,-0.940,2.315
2821847,-1.640,2.520
2821848,-2.240,2.610
2821849,-2.670,2.610
2821850,-2.840,2.540
2821851,-2.740,2.465
2821852,-2.575,2.325
2821853,-2.405,2.225
2821854,-2.280,2.100
2821855,-2.185,1.945
2821856,-1.985,1.870
2821857,-1.845,1.830
2821858,-1.735,1.835
2821859,-1.650,1.815
2821860,-1.485,1.660
2821861,-1.355,1.310
2821862,-1.240,0.895
2821863,-1.145,0.655
2821864,-0.995,0.475
2821865,-0.820,0.365
2821866,-0.680,0.335
2821867,-0.505,0.315
2821868,-0.280,0.305
2821869,-0.080,0.330
2821870,0.050,0.340
2821871,0.210,0.345
2821872,0.365,0.350
2821873,0.475,0.360
2821874,0.520,0.355
2821875,0.570,0.330
2821876,0.580,0.325
2821877,0.615,0.295
2821878,0.635,0.225
2821879,0.675,0.205
2821880,0.725,0.240
2821881,0.750,0.230
2821882,0.755,0.190
2821883,0.770,0.165
2821884,0.780,0.165
2821885,0.780,0.170
2821886,0.820,0.135
2821887,0.840,0.080
2821888,0.855,0.090
2821889,0.860,0.090
2821890,0.870,0.065
2821891,0.855,-0.010
2821892,0.890,-0.045
2821893,0.915,-0.115
2821894,0.920,-0.130
2821895,0.950,-0.140
2821896,0.995,-0.200
2821897,1.005,-0.225
2821898,1.030,-0.200
2821899,1.055,-0.185
2821900,1.085,-0.225
2821901,1.105,-0.210
2821902,1.090,-0.205
2821903,1.070,-0.195
2821904,1.100,-0.155
2821905,1.095,-0.100
2821906,1.055,-0.075
2821907,1.060,-0.030
2821908,1.035,0.000
2821909,0.990,0.070
2821910,0.960,0.115
2821911,0.920,0.140
2821912,0.860,0.165
2821913,0.840,0.200
2821914,0.780,0.210
2821915,0.720,0.210
2821916,0.665,0.210
2821917,0.630,0.180
2821918,0.560,0.175
2821919,0.480,0.155
2821920,0.420,0.115
2821921,0.360,0.100
2821922,0.330,0.055
2821923,0.290,0.030
2821924,0.280,0.040
2821925,0.255,0.055
2821926,0.230,0.050
2821927,0.225,0.025
2821928,0.200,-0.020
2821929,0.215,-0.025
2821930,0.190,-0.035
2821931,0.165,-0.030
2821932,0.160,-0.045
2821933,0.145,-0.020
2821934,0.160,-0.005
2821935,0.155,-0.040
2821936,0.160,-0.070
2821937,0.160,-0.050
2821938,0.145,-0.030
2821939,0.165,-0.015
2821940,0.140,-0.045
2821941,0.180,-0.090
2821942,0.175,-0.080
2821943,0.180,-0.060
2821944,0.185,-0.050
2821945,0.180,-0.015
2821946,0.180,0.035
2821947,0.175,0.175
2821948,0.155,0.300
2821949,0.220,0.385
2821950,0.215,0.370
2821951,0.225,0.380
2821952,0.240,0.420
2821953,0.220,0.405
2821954,0.225,0.400
2821955,0.225,0.440
2821956,0.200,0.470
2821957,0.210,0.485
2821958,0.210,0.490
2821959,0.195,0.480
2821960,0.195,0.480
2821961,0.175,0.480
2821962,0.190,0.505
2821963,0.210,0.510
2821964,0.180,0.520
2821965,0.160,0.495
2821966,0.160,0.485
2821967,0.155,0.495
2821968,0.160,0.515
2821969,0.125,0.500
2821970,0.120,0.480
2821971,0.085,0.435
2821972,0.075,0.445
2821973,0.055,0.465
2821974,0.035,0.495
2821975,0.050,0.505
2821976,0.060,0.550
2821977,0.075,0.535
2821978,0.075,0.550
2821979,0.110,0.615
2821980,0.120,0.730
2821981,0.140,0.920
2821982,0.195,1.185
2821983,0.275,1.465
2821984,0.240,1.685
2821985,0.005,1.855
2821986,-0.405,2.000
2821987,-1.035,2.190
2821988,-1.675,2.425
2821989,-2.175,2.565
2821990,-2.605,2.585
2821991,-2.745,2.580
2821992,-2.640,2.600
2821993,-2.490,2.535
2821994,-2.295,2.450
2821995,-2.130,2.355
2821996,-2.050,2.265
2821997,-1.870,2.185
2821998,-1.685,2.150
2821999,-1.550,2.100
2822000,-1.455,2.120
2822001,-1.325,2.055
2822002,-1.190,1.715
2822003,-1.080,1.200
2822004,-0.995,0.770
2822005,-0.855,0.500
2822006,-0.735,0.305
2822007,-0.625,0.165
2822008,-0.485,0.135
2822009,-0.350,0.165
2822010,-0.175,0.180
2822011,0.000,0.195
2822012,0.195,0.215
2822013,0.365,0.235
2822014,0.455,0.230
2822015,0.490,0.205
2822016,0.540,0.190
2822017,0.580,0.235
2822018,0.605,0.230
2822019,0.615,0.210
2822020,0.640,0.225
2822021,0.660,0.230
2822022,0.685,0.225
2822023,0.700,0.235
2822024,0.725,0.225
2822025,0.740,0.245
2822026,0.775,0.260
2822027,0.795,0.290
2822028,0.830,0.270
2822029,0.870,0.250
2822030,0.925,0.280
2822031,0.925,0.295
2822032,0.960,0.335
2822033,0.980,0.330
2822034,1.015,0.285
2822035,1.070,0.270
2822036,1.115,0.300
2822037,1.170,0.300
2822038,1.175,0.335
2822039,1.235,0.310
2822040,1.245,0.315
2822041,1.260,0.320
2822042,1.265,0.335
2822043,1.300,0.300
2822044,1.300,0.280
2822045,1.255,0.300
2822046,1.235,0.350
2822047,1.225,0.385
2822048,1.185,0.440
2822049,1.180,0.455
2822050,1.145,0.485
2822051,1.100,0.515
2822052,1.085,0.550
2822053,1.015,0.590
2822054,0.955,0.615
2822055,0.915,0.635
2822056,0.850,0.660
2822057,0.805,0.670
2822058,0.740,0.665
2822059,0.695,0.675
2822060,0.650,0.690
2822061,0.590,0.710
2822062,0.555,0.675
2822063,0.485,0.605
2822064,0.435,0.570
2822065,0.415,0.545
2822066,0.415,0.550
2822067,0.390,0.570
2822068,0.360,0.575
2822069,0.335,0.570
2822070,0.350,0.560
2822071,0.375,0.480
2822072,0.380,0.460
2822073,0.415,0.485
2822074,0.405,0.515
2822075,0.410,0.505
2822076,0.430,0.500
2822077,0.430,0.500
2822078,0.445,0.480
2822079,0.485,0.455
2822080,0.495,0.450
2822081,0.500,0.445
2822082,0.520,0.425
2822083,0.530,0.375
2822084,0.510,0.370
2822085,0.505,0.355
2822086,0.465,0.345
2822087,0.445,0.320
2822088,0.450,0.325
2822089,0.440,0.270
2822090,0.420,0.225
2822091,0.450,0.210
2822092,0.480,0.180
2822093,0.450,0.170
2822094,0.460,0.155
2822095,0.465,0.210
2822096,0.435,0.315
2822097,0.435,0.285
2822098,0.425,0.140
2822099,0.445,-0.005
2822100,0.430,-0.090
2822101,0.440,-0.130
2822102,0.480,-0.115
2822103,0.485,-0.065
2822104,0.495,-0.065
2822105,0.490,-0.070
2822106,0.490,-0.070
2822107,0.485,-0.110
2822108,0.495,-0.175
2822109,0.500,-0.185
2822110,0.495,-0.215
2822111,0.495,-0.210
2822112,0.485,-0.235
2822113,0.475,-0.295
2822114,0.475,-0.310
2822115,0.490,-0.295
2822116,0.475,-0.320
2822117,0.480,-0.345
2822118,0.470,-0.365
2822119,0.445,-0.355
2822120,0.455,-0.355
2822121,0.450,-0.360
2822122,0.460,-0.340
2822123,0.450,-0.365
2822124,0.430,-0.385
2822125,0.390,-0.410
2822126,0.365,-0.435
2822127,0.355,-0.420
2822128,0.340,-0.410
2822129,0.370,-0.420
2822130,0.350,-0.450
2822131,0.385,-0.470
2822132,0.395,-0.460
2822133,0.435,-0.440
2822134,0.405,-0.445
2822135,0.450,-0.480
2822136,0.435,-0.505
2822137,0.415,-0.510
2822138,0.435,-0.485
2822139,0.465,-0.495
2822140,0.480,-0.520
2822141,0.460,-0.520
2822142,0.410,-0.505
2822143,0.425,-0.515
2822144,0.450,-0.545
2822145,0.460,-0.545
2822146,0.420,-0.540
2822147,0.430,-0.520
2822148,0.430,-0.555
2822149,0.450,-0.560
2822150,0.440,-0.555
2822151,0.465,-0.570
2822152,0.465,-0.570
2822153,0.460,-0.570
2822154,0.445,-0.605
2822155,0.455,-0.580
2822156,0.450,-0.595
2822157,0.460,-0.570
2822158,0.460,-0.575
2822159,0.455,-0.570
2822160,0.460,-0.575
2822161,0.475,-0.565
2822162,0.450,-0.530
2822163,0.450,-0.540
2822164,0.455,-0.535
2822165,0.475,-0.540
2822166,0.465,-0.535
2822167,0.455,-0.540
2822168,0.420,-0.555
2822169,0.420,-0.545
2822170,0.400,-0.560
2822171,0.365,-0.575
2822172,0.340,-0.570
2822173,0.335,-0.575
2822174,0.350,-0.565
2822175,0.345,-0.570
2822176,0.335,-0.620
2822177,0.350,-0.600
2822178,0.360,-0.660
2822179,0.390,-0.665
2822180,0.410,-0.650
2822181,0.395,-0.640
2822182,0.400,-0.640
2822183,0.415,-0.630
2822184,0.435,-0.620
2822185,0.435,-0.640
2822186,0.460,-0.695
2822187,0.445,-0.745
2822188,0.450,-0.780
2822189,0.445,-0.730
2822190,0.445,-0.650
2822191,0.485,-0.570
2822192,0.520,-0.450
2822193,0.580,-0.250
2822194,0.630,0.025
2822195,0.520,0.235
2822196,0.240,0.440
2822197,-0.230,0.690
2822198,-0.890,0.970
2822199,-1.515,1.175
2822200,-2.010,1.265
2822201,-2.365,1.295
2822202,-2.365,1.285
2822203,-2.195,1.250
2822204,-2.020,1.200
2822205,-1.830,1.135
2822206,-1.740,1.045
2822207,-1.600,0.945
2822208,-1.395,0.850
2822209,-1.275,0.785
2822210,-1.180,0.745
2822211,-1.055,0.690
2822212,-0.915,0.555
2822213,-0.805,0.195
2822214,-0.720,-0.335
2822215,-0.640,-0.800
2822216,-0.545,-1.070
2822217,-0.405,-1.250
2822218,-0.280,-1.280
2822219,-0.145,-1.285
2822220,0.010,-1.250
2822221,0.210,-1.200
2822222,0.380,-1.140
2822223,0.585,-1.080
2822224,0.735,-1.075
2822225,0.865,-1.010
2822226,0.895,-0.975
2822227,0.930,-0.985
2822228,1.000,-0.970
2822229,1.010,-0.925
2822230,1.040,-0.895
2822231,1.040,-0.865
2822232,1.080,-0.890
2822233,1.095,-0.910
2822234,1.100,-0.885
2822235,1.125,-0.925
2822236,1.145,-0.960
2822237,1.155,-0.950
2822238,1.180,-0.980
2822239,1.205,-1.005
2822240,1.220,-1.070
2822241,1.270,-1.100
2822242,1.300,-1.125
2822243,1.355,-1.185
2822244,1.400,-1.230
2822245,1.425,-1.260
2822246,1.460,-1.300
2822247,1.465,-1.280
2822248,1.510,-1.350
2822249,1.525,-1.395
2822250,1.555,-1.435
2822251,1.575,-1.460
2822252,1.570,-1.495
2822253,1.565,-1.505
2822254,1.565,-1.535
2822255,1.565,-1.545
2822256,1.580,-1.550
2822257,1.565,-1.565
2822258,1.545,-1.590
2822259,1.535,-1.585
2822260,1.525,-1.590
2822261,1.505,-1.560
2822262,1.510,-1.515
2822263,1.460,-1.495
2822264,1.440,-1.480
2822265,1.400,-1.430
2822266,1.340,-1.415
2822267,1.290,-1.385
2822268,1.240,-1.365
2822269,1.200,-1.345
2822270,1.150,-1.350
2822271,1.105,-1.360
2822272,1.055,-1.375
2822273,1.010,-1.365
2822274,0.950,-1.370
2822275,0.905,-1.395
2822276,0.870,-1.460
2822277,0.825,-1.510
2822278,0.785,-1.505
2822279,0.750,-1.510
2822280,0.735,-1.485
2822281,0.710,-1.485
2822282,0.700,-1.510
2822283,0.695,-1.570
2822284,0.700,-1.575
2822285,0.675,-1.590
2822286,0.675,-1.580
2822287,0.680,-1.580
2822288,0.675,-1.610
2822289,0.675,-1.620
2822290,0.675,-1.620
2822291,0.675,-1.615
2822292,0.675,-1.635
2822293,0.640,-1.660
2822294,0.635,-1.675
2822295,0.645,-1.680
2822296,0.620,-1.665
2822297,0.565,-1.685
2822298,0.570,-1.690
2822299,0.575,-1.675
2822300,0.570,-1.710
2822301,0.575,-1.710
2822302,0.560,-1.720
2822303,0.595,-1.725
2822304,0.630,-1.725
2822305,0.615,-1.710
2822306,0.600,-1.735
2822307,0.620,-1.750
2822308,0.640,-1.745
2822309,0.645,-1.745
2822310,0.665,-1.730
2822311,0.685,-1.750
2822312,0.680,-1.745
2822313,0.695,-1.740
2822314,0.705,-1.785
2822315,0.705,-1.810
2822316,0.685,-1.825
2822317,0.700,-1.845
2822318,0.690,-1.855
2822319,0.675,-1.865
2822320,0.660,-1.835
2822321,0.660,-1.795
2822322,0.665,-1.795
2822323,0.690,-1.805
2822324,0.690,-1.805
2822325,0.695,-1.775
2822326,0.680,-1.795
2822327,0.700,-1.805
2822328,0.685,-1.790
2822329,0.660,-1.750
2822330,0.640,-1.710
2822331,0.640,-1.615
2822332,0.640,-1.520
2822333,0.715,-1.325
2822334,0.765,-1.070
2822335,0.730,-0.890
2822336,0.500,-0.725
2822337,0.065,-0.475
2822338,-0.620,-0.220
2822339,-1.290,0.010
2822340,-1.850,0.140
2822341,-2.170,0.190
2822342,-2.240,0.175
2822343,-2.105,0.135
2822344,-1.955,0.045
2822345,-1.785,-0.020
2822346,-1.680,-0.075
2822347,-1.605,-0.230
2822348,-1.400,-0.375
2822349,-1.270,-0.455
2822350,-1.170,-0.540
2822351,-1.030,-0.600
2822352,-0.900,-0.770
2822353,-0.780,-1.115
2822354,-0.705,-1.550
2822355,-0.585,-1.920
2822356,-0.460,-2.125
2822357,-0.295,-2.225
2822358,-0.170,-2.185
2822359,0.005,-2.130
2822360,0.185,-2.115
2822361,0.380,-2.120
2822362,0.570,-2.075
2822363,0.745,-2.065
2822364,0.875,-2.075
2822365,0.980,-2.100
2822366,1.025,-2.085
2822367,1.060,-2.085
2822368,1.075,-2.090
2822369,1.140,-2.105
2822370,1.110,-2.105
2822371,1.160,-2.090
2822372,1.150,-2.080
2822373,1.180,-2.095
2822374,1.200,-2.060
2822375,1.210,-2.055
2822376,1.210,-2.060
2822377,1.240,-2.090
2822378,1.210,-2.100
2822379,1.245,-2.090
2822380,1.220,-2.090
2822381,1.205,-2.105
2822382,1.230,-2.100
2822383,1.230,-2.095
2822384,1.240,-2.095
2822385,1.240,-2.130
2822386,1.270,-2.120
2822387,1.290,-2.095
2822388,1.310,-2.080
2822389,1.315,-2.075
2822390,1.340,-2.065
2822391,1.385,-2.055
2822392,1.435,-2.015
2822393,1.465,-2.010
2822394,1.480,-1.980
2822395,1.510,-1.955
2822396,1.505,-1.905
2822397,1.510,-1.885
2822398,1.485,-1.880
2822399,1.450,-1.875
2822400,1.425,-1.885
2822401,1.395,-1.850
2822402,1.345,-1.865
2822403,1.310,-1.820
2822404,1.250,-1.810
2822405,1.180,-1.785
2822406,1.120,-1.760
2822407,1.100,-1.750
2822408,1.050,-1.750
2822409,1.000,-1.750
2822410,0.975,-1.775
2822411,0.890,-1.770
2822412,0.865,-1.805
2822413,0.835,-1.785
2822414,0.800,-1.805
2822415,0.745,-1.830
2822416,0.695,-1.860
2822417,0.695,-1.830
2822418,0.655,-1.850
2822419,0.640,-1.885
2822420,0.620,-1.865
2822421,0.590,-1.890
2822422,0.580,-1.890
2822423,0.555,-1.925
2822424,0.525,-1.915
2822425,0.485,-1.935
2822426,0.465,-1.910
2822427,0.475,-1.930
2822428,0.435,-1.945
2822429,0.415,-1.960
2822430,0.400,-1.945
2822431,0.395,-1.970
2822432,0.405,-1.985
2822433,0.395,-2.005
2822434,0.400,-1.990
2822435,0.410,-2.010
2822436,0.405,-1.990
2822437,0.395,-2.015
2822438,0.405,-1.980
2822439,0.405,-2.010
2822440,0.405,-2.040
2822441,0.405,-2.045
2822442,0.420,-1.995
2822443,0.425,-1.980
2822444,0.420,-1.970
2822445,0.430,-1.985
2822446,0.445,-1.955
2822447,0.475,-1.950
2822448,0.450,-1.965
2822449,0.445,-1.950
2822450,0.475,-1.935
2822451,0.455,-1.925
2822452,0.455,-1.920
2822453,0.460,-1.915
2822454,0.450,-1.865
2822455,0.455,-1.870
2822456,0.435,-1.890
2822457,0.445,-1.920
2822458,0.435,-1.890
2822459,0.435,-1.885
2822460,0.435,-1.895
2822461,0.420,-1.920
2822462,0.405,-1.875
2822463,0.410,-1.860
2822464,0.400,-1.865
2822465,0.355,-1.855
2822466,0.340,-1.830
2822467,0.340,-1.830
2822468,0.340,-1.865
2822469,0.315,-1.880
2822470,0.310,-1.885
2822471,0.310,-1.855
2822472,0.300,-1.865
2822473,0.275,-1.875
2822474,0.290,-1.875
2822475,0.295,-1.830
2822476,0.310,-1.845
2822477,0.280,-1.805
2822478,0.285,-1.720
2822479,0.295,-1.575
2822480,0.355,-1.325
2822481,0.440,-0.915
2822482,0.390,-0.595
2822483,0.190,-0.460
2822484,-0.235,-0.290
2822485,-0.865,-0.105
2822486,-1.535,0.120
2822487,-2.090,0.270
2822488,-2.490,0.255
2822489,-2.610,0.180
2822490,-2.485,0.090
2822491,-2.295,0.025
2822492,-2.095,-0.090
2822493,-1.990,-0.225
2822494,-1.815,-0.355
2822495,-1.630,-0.400
2822496,-1.475,-0.405
2822497,-1.385,-0.400
2822498,-1.225,-0.435
2822499,-1.110,-0.665
2822500,-0.965,-1.090
2822501,-0.880,-1.585
2822502,-0.750,-1.895
2822503,-0.635,-2.090
2822504,-0.460,-2.160
2822505,-0.310,-2.155
2822506,-0.175,-2.165
2822507,-0.005,-2.150
2822508,0.135,-2.080
2822509,0.300,-2.050
2822510,0.435,-2.095
2822511,0.525,-2.095
2822512,0.565,-2.085
2822513,0.590,-2.110
2822514,0.645,-2.095
2822515,0.640,-1.960
2822516,0.655,-1.865
2822517,0.690,-2.055
2822518,0.715,-2.170
2822519,0.730,-2.150
2822520,0.760,-2.105
2822521,0.805,-2.060
2822522,0.830,-2.035
2822523,0.875,-2.015
2822524,0.895,-2.030
2822525,0.895,-2.045
2822526,0.915,-2.025
2822527,0.970,-2.055
2822528,1.010,-2.100
2822529,1.055,-2.170
2822530,1.090,-2.150
2822531,1.125,-2.075
2822532,1.130,-2.040
2822533,1.170,-2.030
2822534,1.215,-2.075
2822535,1.240,-2.140
2822536,1.270,-2.160
2822537,1.275,-2.125
2822538,1.310,-2.070
2822539,1.300,-2.060
2822540,1.295,-2.020
2822541,1.305,-1.940
2822542,1.295,-1.885
2822543,1.265,-1.855
2822544,1.260,-1.790
2822545,1.200,-1.695
2822546,1.160,-1.570
2822547,1.070,-1.525
2822548,1.020,-1.465
2822549,0.970,-1.285
2822550,0.885,-1.175
2822551,0.810,-1.250
2822552,0.740,-1.380
2822553,0.680,-1.495
2822554,0.625,-1.625
2822555,0.575,-1.760
2822556,0.530,-1.795
2822557,0.500,-1.760
2822558,0.475,-1.660
2822559,0.460,-1.615
2822560,0.440,-1.595
2822561,0.395,-1.530
2822562,0.340,-1.535
2822563,0.305,-1.600
2822564,0.270,-1.640
2822565,0.260,-1.610
2822566,0.265,-1.605
2822567,0.255,-1.600
2822568,0.250,-1.580
2822569,0.240,-1.540
2822570,0.255,-1.540
2822571,0.260,-1.595
2822572,0.255,-1.590
2822573,0.235,-1.550
2822574,0.250,-1.535
2822575,0.270,-1.560
2822576,0.265,-1.560
2822577,0.270,-1.530
2822578,0.245,-1.545
2822579,0.260,-1.530
2822580,0.225,-1.505
2822581,0.240,-1.415
2822582,0.230,-1.475
2822583,0.205,-1.545
2822584,0.200,-1.495
2822585,0.215,-1.445
2822586,0.235,-1.535
2822587,0.200,-1.600
2822588,0.195,-1.570
2822589,0.185,-1.565
2822590,0.175,-1.630
2822591,0.170,-1.760
2822592,0.145,-1.775
2822593,0.135,-1.855
2822594,0.140,-1.885
2822595,0.150,-1.900
2822596,0.095,-1.865
2822597,0.095,-1.790
2822598,0.150,-1.730
2822599,0.180,-1.705
2822600,0.175,-1.650
2822601,0.190,-1.660
2822602,0.185,-1.690
2822603,0.165,-1.730
2822604,0.175,-1.715
2822605,0.160,-1.650
2822606,0.135,-1.635
2822607,0.145,-1.625
2822608,0.150,-1.660
2822609,0.175,-1.685
2822610,0.160,-1.675
2822611,0.160,-1.575
2822612,0.155,-1.465
2822613,0.175,-1.395
2822614,0.175,-1.450
2822615,0.145,-1.480
2822616,0.160,-1.620
2822617,0.140,-1.675
2822618,0.160,-1.730
2822619,0.155,-1.770
2822620,0.145,-1.640
2822621,0.200,-1.480
2822622,0.205,-1.445
2822623,0.175,-1.535
2822624,0.175,-1.630
2822625,0.140,-1.660
2822626,0.135,-1.550
2822627,0.125,-1.485
2822628,0.140,-1.565
2822629,0.130,-1.585
2822630,0.115,-1.575
2822631,0.085,-1.490
2822632,0.110,-1.350
2822633,0.095,-1.205
2822634,0.060,-1.295
2822635,0.050,-1.510
2822636,0.060,-1.625
2822637,0.025,-1.655
2822638,0.025,-1.650
2822639,0.030,-1.640
2822640,0.040,-1.600
2822641,0.030,-1.495
2822642,0.050,-1.440
2822643,0.050,-1.325
2822644,0.065,-1.100
2822645,0.090,-0.745
2822646,0.135,-0.355
2822647,0.020,-0.110
2822648,-0.280,0.050
2822649,-0.780,0.285
2822650,-1.450,0.620
2822651,-2.070,0.840
2822652,-2.570,0.835
2822653,-2.840,0.785
2822654,-2.805,0.745
2822655,-2.660,0.585
2822656,-2.455,0.425
2822657,-2.305,0.310
2822658,-2.160,0.250
2822659,-1.935,0.205
2822660,-1.785,0.195
2822661,-1.660,0.155
2822662,-1.515,0.235
2822663,-1.395,0.160
2822664,-1.230,-0.355
2822665,-1.105,-1.080
2822666,-1.005,-1.530
2822667,-0.855,-1.740
2822668,-0.695,-1.860
2822669,-0.520,-1.860
2822670,-0.380,-1.850
2822671,-0.165,-1.875
2822672,0.030,-1.845
2822673,0.225,-1.660
2822674,0.385,-1.650
2822675,0.505,-1.800
2822676,0.560,-1.920
2822677,0.590,-1.930
2822678,0.625,-1.915
2822679,0.640,-1.855
2822680,0.655,-1.795
2822681,0.610,-1.750
2822682,0.595,-1.715
2822683,0.600,-1.835
2822684,0.605,-2.005
2822685,0.600,-2.040
2822686,0.585,-1.990
2822687,0.575,-1.920
2822688,0.580,-1.865
2822689,0.600,-1.880
2822690,0.625,-1.905
2822691,0.685,-1.875
2822692,0.725,-1.825
2822693,0.810,-1.745
2822694,0.825,-1.760
2822695,0.880,-1.910
2822696,0.910,-1.970
2822697,0.905,-1.945
2822698,0.905,-1.890
2822699,0.945,-1.845
2822700,0.985,-1.825
2822701,1.000,-1.910
2822702,1.030,-2.010
2822703,1.065,-1.945
2822704,1.095,-1.750
2822705,1.085,-1.740
2822706,1.095,-1.885
2822707,1.080,-1.805
2822708,1.050,-1.590
2822709,1.010,-1.770
2822710,0.985,-1.960
2822711,0.980,-1.875
2822712,0.975,-1.800
2822713,0.910,-1.790
2822714,0.890,-1.690
2822715,0.880,-1.565
2822716,0.855,-1.520
2822717,0.785,-1.505
2822718,0.725,-1.485
2822719,0.655,-1.605
2822720,0.565,-1.715
2822721,0.495,-1.595
2822722,0.450,-1.475
2822723,0.405,-1.450
2822724,0.370,-1.545
2822725,0.365,-1.695
2822726,0.310,-1.800
2822727,0.270,-1.760
2822728,0.240,-1.655
2822729,0.255,-1.580
2822730,0.280,-1.570
2822731,0.260,-1.575
2822732,0.210,-1.520
2822733,0.160,-1.520
2822734,0.105,-1.620
2822735,0.065,-1.785
2822736,0.025,-1.795
2822737,0.005,-1.590
2822738,0.010,-1.555
2822739,-0.015,-1.705
2822740,0.010,-1.830
2822741,-0.005,-1.805
2822742,-0.015,-1.710
2822743,-0.020,-1.685
2822744,0.020,-1.700
2822745,0.040,-1.650
2822746,0.030,-1.570
2822747,0.065,-1.590
2822748,0.065,-1.610
2822749,0.090,-1.570
2822750,0.080,-1.485
2822751,0.095,-1.325
2822752,0.125,-1.205
2822753,0.165,-1.135
2822754,0.240,-0.995
2822755,0.300,-0.840
2822756,0.095,-0.585
2822757,-0.370,-0.175
2822758,-1.110,0.130
2822759,-1.780,0.295
2822760,-2.335,0.420
2822761,-2.640,0.550
2822762,-2.660,0.660
2822763,-2.535,0.640
2822764,-2.355,0.525
2822765,-2.215,0.480
2822766,-2.130,0.385
2822767,-1.970,0.110
2822768,-1.800,-0.040
2822769,-1.690,-0.040
2822770,-1.545,-0.020
2822771,-1.410,-0.170
2822772,-1.295,-0.565
2822773,-1.185,-1.115
2822774,-1.110,-1.535
2822775,-1.040,-1.745
2822776,-0.920,-1.930
2822777,-0.760,-2.045
2822778,-0.620,-2.075
2822779,-0.410,-2.020
2822780,-0.225,-1.880
2822781,0.000,-1.800
2822782,0.170,-1.805
2822783,0.290,-1.870
2822784,0.355,-1.930
2822785,0.395,-1.970
2822786,0.420,-1.885
2822787,0.460,-1.780
2822788,0.505,-1.690
2822789,0.490,-1.580
2822790,0.510,-1.570
2822791,0.540,-1.620
2822792,0.575,-1.695
2822793,0.585,-1.730
2822794,0.605,-1.730
2822795,0.625,-1.765
2822796,0.655,-1.700
2822797,0.715,-1.580
2822798,0.740,-1.685
2822799,0.790,-1.835
2822800,0.810,-1.790
2822801,0.840,-1.710
2822802,0.850,-1.720
2822803,0.890,-1.725
2822804,0.930,-1.755
2822805,0.950,-1.805
2822806,1.000,-1.815
2822807,1.005,-1.800
2822808,1.030,-1.760
2822809,1.050,-1.710
2822810,1.065,-1.720
2822811,1.050,-1.675
2822812,1.065,-1.635
2822813,1.065,-1.635
2822814,1.065,-1.640
2822815,1.035,-1.600
2822816,1.010,-1.525
2822817,0.975,-1.465
2822818,0.905,-1.395
2822819,0.855,-1.385
2822820,0.810,-1.305
2822821,0.740,-1.250
2822822,0.665,-1.325
2822823,0.580,-1.360
2822824,0.535,-1.305
2822825,0.495,-1.230
2822826,0.430,-1.125
2822827,0.380,-1.015
2822828,0.320,-1.065
2822829,0.275,-1.215
2822830,0.220,-1.295
2822831,0.205,-1.335
2822832,0.180,-1.320
2822833,0.200,-1.195
2822834,0.185,-1.120
2822835,0.170,-1.190
2822836,0.150,-1.380
2822837,0.165,-1.450
2822838,0.120,-1.340
2822839,0.115,-1.195
2822840,0.150,-1.060
2822841,0.135,-1.070
2822842,0.150,-1.315
2822843,0.115,-1.570
2822844,0.110,-1.545
2822845,0.125,-1.470
2822846,0.135,-1.370
2822847,0.170,-1.285
2822848,0.210,-1.280
2822849,0.225,-1.220
2822850,0.220,-1.250
2822851,0.190,-1.335
2822852,0.190,-1.350
2822853,0.180,-1.220
2822854,0.190,-1.200
2822855,0.170,-1.365
2822856,0.150,-1.490
2822857,0.135,-1.435
2822858,0.130,-1.330
2822859,0.150,-1.265
2822860,0.155,-1.180
2822861,0.145,-1.100
2822862,0.095,-1.140
2822863,0.100,-1.150
2822864,0.050,-1.050
2822865,0.070,-0.975
2822866,0.035,-1.040
2822867,0.045,-1.125
2822868,0.040,-1.155
2822869,0.040,-1.170
2822870,0.025,-1.310
2822871,0.025,-1.280
2822872,0.060,-1.225
2822873,0.075,-1.225
2822874,0.085,-1.215
2822875,0.090,-1.185
2822876,0.060,-1.150
2822877,0.055,-1.110
2822878,0.075,-1.060
2822879,0.055,-1.010
2822880,0.060,-1.060
2822881,0.070,-1.150
2822882,0.080,-1.155
2822883,0.060,-1.045
2822884,0.065,-0.960
2822885,0.065,-1.030
2822886,0.080,-1.155
2822887,0.060,-1.175
2822888,0.020,-1.155
2822889,0.045,-1.190
2822890,0.070,-1.190
2822891,0.090,-1.125
2822892,0.025,-1.050
2822893,0.015,-1.070
2822894,0.040,-1.090
2822895,0.080,-1.050
2822896,0.090,-1.010
2822897,0.115,-0.965
2822898,0.150,-0.990
2822899,0.130,-1.100
2822900,0.120,-1.150
2822901,0.105,-1.120
2822902,0.080,-1.005
2822903,0.070,-0.865
2822904,0.070,-0.920
2822905,0.055,-1.020
2822906,0.025,-1.060
2822907,0.030,-1.040
2822908,0.025,-0.975
2822909,0.000,-0.975
2822910,0.020,-0.995
2822911,0.000,-0.985
2822912,0.005,-0.875
2822913,0.000,-0.820
2822914,0.005,-0.815
2822915,-0.005,-0.895
2822916,0.000,-1.020
2822917,-0.015,-1.100
2822918,0.015,-1.145
2822919,0.025,-1.120
2822920,0.020,-1.005
2822921,0.025,-0.935
2822922,0.025,-0.935
2822923,0.015,-0.980
2822924,0.020,-1.005
2822925,0.005,-0.940
2822926,0.015,-0.840
2822927,0.005,-0.900
2822928,0.010,-1.035
2822929,-0.005,-1.095
2822930,0.020,-1.005
2822931,0.000,-0.990
2822932,-0.020,-0.970
2822933,0.010,-0.895
2822934,0.015,-0.780
2822935,-0.010,-0.815
2822936,0.000,-1.015
2822937,-0.010,-1.170
2822938,0.000,-1.205
2822939,0.000,-1.100
2822940,0.005,-1.030
2822941,0.055,-1.000
2822942,0.055,-0.975
2822943,0.070,-0.910
2822944,0.060,-0.885
2822945,0.075,-0.835
2822946,0.050,-0.795
2822947,0.035,-0.770
2822948,0.040,-0.725
2822949,0.040,-0.570
2822950,0.000,-0.500
2822951,0.015,-0.610
2822952,0.015,-0.765
2822953,0.050,-0.935
2822954,0.000,-1.025
2822955,-0.010,-1.050
2822956,0.000,-0.975
2822957,0.035,-0.870
2822958,0.045,-0.790
2822959,0.040,-0.790
2822960,0.040,-0.765
2822961,0.025,-0.660
2822962,0.020,-0.635
2822963,0.005,-0.610
2822964,0.015,-0.525
2822965,0.040,-0.455
2822966,0.070,-0.375
2822967,0.175,-0.155
2822968,0.235,0.075
2822969,0.070,0.260
2822970,-0.275,0.480
2822971,-0.845,0.725
2822972,-1.530,0.875
2822973,-2.130,0.985
2822974,-2.545,1.095
2822975,-2.765,1.145
2822976,-2.725,1.190
2822977,-2.605,1.240
2822978,-2.420,1.250
2822979,-2.270,1.145
2822980,-2.150,0.930
2822981,-1.980,0.845
2822982,-1.800,0.875
2822983,-1.680,0.805
2822984,-1.570,0.740
2822985,-1.425,0.730
2822986,-1.300,0.600
2822987,-1.170,0.215
2822988,-1.040,-0.290
2822989,-0.955,-0.690
2822990,-0.825,-1.010
2822991,-0.745,-1.240
2822992,-0.650,-1.250
2822993,-0.560,-1.205
2822994,-0.365,-1.170
2822995,-0.200,-1.110
2822996,-0.045,-1.115
2822997,0.125,-1.165
2822998,0.250,-1.125
2822999,0.290,-1.100
2823000,0.350,-1.060
2823001,0.390,-0.980
2823002,0.430,-0.940
2823003,0.480,-0.935
2823004,0.495,-1.040
2823005,0.505,-1.105
2823006,0.560,-1.065
2823007,0.605,-0.985
2823008,0.645,-0.955
2823009,0.655,-0.985
2823010,0.670,-1.000
2823011,0.690,-1.015
2823012,0.715,-1.075
2823013,0.755,-1.080
2823014,0.785,-1.025
2823015,0.820,-0.960
2823016,0.830,-0.930
2823017,0.860,-0.935
2823018,0.875,-1.030
2823019,0.915,-1.040
2823020,0.950,-1.020
2823021,0.965,-0.990
2823022,1.005,-1.040
2823023,1.060,-1.050
2823024,1.095,-0.980
2823025,1.125,-0.965
2823026,1.170,-0.970
2823027,1.190,-0.960
2823028,1.230,-0.980
2823029,1.250,-0.995
2823030,1.265,-0.965
2823031,1.295,-0.860
2823032,1.285,-0.800
2823033,1.255,-0.785
2823034,1.210,-0.815
2823035,1.175,-0.905
2823036,1.130,-0.965
2823037,1.080,-0.950
2823038,1.040,-0.775
2823039,0.975,-0.635
2823040,0.915,-0.555
2823041,0.890,-0.495
2823042,0.830,-0.470
2823043,0.745,-0.520
2823044,0.685,-0.530
2823045,0.615,-0.485
2823046,0.535,-0.460
2823047,0.495,-0.585
2823048,0.460,-0.710
2823049,0.420,-0.720
2823050,0.375,-0.655
2823051,0.345,-0.650
2823052,0.290,-0.635
2823053,0.255,-0.675
2823054,0.225,-0.615
2823055,0.185,-0.565
2823056,0.160,-0.510
2823057,0.180,-0.495
2823058,0.170,-0.505
2823059,0.180,-0.520
2823060,0.180,-0.510
2823061,0.145,-0.475
2823062,0.150,-0.535
2823063,0.130,-0.680
2823064,0.160,-0.760
2823065,0.190,-0.675
2823066,0.220,-0.595
2823067,0.230,-0.585
2823068,0.255,-0.565
2823069,0.230,-0.535
2823070,0.250,-0.545
2823071,0.205,-0.610
2823072,0.185,-0.700
2823073,0.175,-0.710
2823074,0.170,-0.655
2823075,0.165,-0.680
2823076,0.120,-0.695
2823077,0.170,-0.635
2823078,0.170,-0.530
2823079,0.180,-0.550
2823080,0.150,-0.590
2823081,0.130,-0.460
2823082,0.130,-0.390
2823083,0.130,-0.450
2823084,0.150,-0.595
2823085,0.150,-0.700
2823086,0.155,-0.710
2823087,0.150,-0.600
2823088,0.170,-0.590
2823089,0.170,-0.670
2823090,0.170,-0.760
2823091,0.150,-0.740
2823092,0.150,-0.710
2823093,0.155,-0.660
2823094,0.155,-0.640
2823095,0.155,-0.620
2823096,0.165,-0.595
2823097,0.145,-0.515
2823098,0.130,-0.520
2823099,0.155,-0.555
2823100,0.155,-0.605
2823101,0.135,-0.605
2823102,0.160,-0.520
2823103,0.175,-0.400
2823104,0.145,-0.455
2823105,0.105,-0.565
2823106,0.090,-0.685
2823107,0.090,-0.680
2823108,0.100,-0.610
2823109,0.160,-0.640
2823110,0.165,-0.630
2823111,0.175,-0.585
2823112,0.155,-0.575
2823113,0.115,-0.630
2823114,0.160,-0.615
2823115,0.165,-0.475
2823116,0.190,-0.370
2823117,0.220,-0.185
2823118,0.265,-0.035
2823119,0.320,0.110
2823120,0.405,0.345
2823121,0.345,0.555
2823122,0.055,0.720
2823123,-0.410,0.970
2823124,-1.075,1.230
2823125,-1.730,1.460
2823126,-2.275,1.510
2823127,-2.615,1.440
2823128,-2.685,1.470
2823129,-2.575,1.520
2823130,-2.395,1.445
2823131,-2.200,1.345
2823132,-2.080,1.300
2823133,-1.990,1.225
2823134,-1.870,1.095
2823135,-1.735,0.950
2823136,-1.640,0.780
2823137,-1.525,0.740
2823138,-1.425,0.635
2823139,-1.320,0.315
2823140,-1.195,-0.145
2823141,-1.095,-0.440
2823142,-0.990,-0.530
2823143,-0.845,-0.755
2823144,-0.700,-0.975
2823145,-0.565,-1.005
2823146,-0.430,-0.905
2823147,-0.255,-0.820
2823148,-0.010,-0.805
2823149,0.160,-0.780
2823150,0.275,-0.715
2823151,0.360,-0.750
2823152,0.430,-0.765
2823153,0.495,-0.740
2823154,0.545,-0.685
2823155,0.575,-0.630
2823156,0.595,-0.590
2823157,0.640,-0.600
2823158,0.670,-0.630
2823159,0.660,-0.605
2823160,0.690,-0.565
2823161,0.680,-0.530
2823162,0.710,-0.660
2823163,0.740,-0.710
2823164,0.785,-0.665
2823165,0.820,-0.530
2823166,0.865,-0.560
2823167,0.885,-0.615
2823168,0.870,-0.625
2823169,0.875,-0.605
2823170,0.870,-0.560
2823171,0.895,-0.530
2823172,0.910,-0.535
2823173,0.920,-0.510
2823174,0.935,-0.435
2823175,0.970,-0.320
2823176,1.015,-0.305
2823177,1.015,-0.430
2823178,1.015,-0.585
2823179,1.025,-0.600
2823180,1.040,-0.560
2823181,1.045,-0.505
2823182,1.070,-0.505
2823183,1.060,-0.485
2823184,1.070,-0.430
2823185,1.040,-0.390
2823186,1.030,-0.295
2823187,0.990,-0.135
2823188,0.950,0.035
2823189,0.930,-0.005
2823190,0.855,-0.155
2823191,0.805,-0.310
2823192,0.750,-0.320
2823193,0.690,-0.300
2823194,0.665,-0.280
2823195,0.605,-0.235
2823196,0.585,-0.140
2823197,0.545,-0.105
2823198,0.480,-0.105
2823199,0.455,-0.155
2823200,0.415,-0.205
2823201,0.370,-0.170
2823202,0.345,-0.130
2823203,0.300,-0.135
2823204,0.280,-0.140
2823205,0.280,-0.150
2823206,0.240,-0.150
2823207,0.230,-0.095
2823208,0.210,0.015
2823209,0.185,-0.115
2823210,0.160,-0.310
2823211,0.120,-0.320
2823212,0.080,-0.270
2823213,0.105,-0.220
2823214,0.085,-0.250
2823215,0.055,-0.270
2823216,0.030,-0.250
2823217,0.040,-0.190
2823218,0.045,-0.155
2823219,0.070,-0.165
2823220,0.045,-0.135
2823221,0.070,-0.090
2823222,0.050,-0.155
2823223,0.050,-0.290
2823224,0.045,-0.280
2823225,0.075,-0.175
2823226,0.050,-0.175
2823227,0.060,-0.255
2823228,0.070,-0.270
2823229,0.050,-0.195
2823230,0.050,-0.175
2823231,0.060,-0.140
2823232,0.060,-0.205
2823233,0.065,-0.340
2823234,0.050,-0.400
2823235,0.025,-0.370
2823236,0.020,-0.340
2823237,0.020,-0.300
2823238,0.055,-0.240
2823239,0.075,-0.230
2823240,0.080,-0.245
2823241,0.070,-0.250
2823242,0.060,-0.215
2823243,0.075,-0.095
2823244,0.075,0.125
2823245,0.095,0.280
2823246,0.150,0.470
2823247,0.210,0.765
2823248,0.205,1.125
2823249,0.040,1.340
2823250,-0.285,1.440
2823251,-0.825,1.600
2823252,-1.520,1.860
2823253,-2.090,2.040
2823254,-2.535,2.040
2823255,-2.740,2.010
2823256,-2.670,1.930
2823257,-2.565,1.880
2823258,-2.360,1.800
2823259,-2.275,1.675
2823260,-2.190,1.470
2823261,-2.055,1.285
2823262,-1.915,1.210
2823263,-1.795,1.220
2823264,-1.715,1.285
2823265,-1.595,1.235
2823266,-1.485,0.965
2823267,-1.355,0.530
